4000,0.0835
3999.5,0.0837
3999,0.0838
3998.5,0.0839
3998,0.0838
3997.5,0.0837
3997,0.0835
3996.5,0.0833
3996,0.083
3995.5,0.0827
3995,0.0824
3994.5,0.082
3994,0.0816
3993.5,0.0812
3993,0.0808
3992.5,0.0804
3992,0.08
3991.5,0.0796
3991,0.0792
3990.5,0.0788
3990,0.0784
3989.5,0.078
3989,0.0776
3988.5,0.0771
3988,0.0766
3987.5,0.0761
3987,0.0757
3986.5,0.0752
3986,0.0748
3985.5,0.0743
3985,0.0737
3984.5,0.0733
3984,0.0728
3983.5,0.0724
3983,0.0719
3982.5,0.0714
3982,0.0708
3981.5,0.0703
3981,0.0699
3980.5,0.0695
3980,0.069
3979.5,0.0685
3979,0.068
3978.5,0.0674
3978,0.0669
3977.5,0.0664
3977,0.0659
3976.5,0.0654
3976,0.0648
3975.5,0.0642
3975,0.0636
3974.5,0.0631
3974,0.0625
3973.5,0.0619
3973,0.0612
3972.5,0.0605
3972,0.0599
3971.5,0.0593
3971,0.0587
3970.5,0.0581
3970,0.0575
3969.5,0.057
3969,0.0565
3968.5,0.056
3968,0.0555
3967.5,0.055
3967,0.0545
3966.5,0.0541
3966,0.0536
3965.5,0.0532
3965,0.0529
3964.5,0.0525
3964,0.0521
3963.5,0.0518
3963,0.0516
3962.5,0.0513
3962,0.0512
3961.5,0.051
3961,0.0508
3960.5,0.0506
3960,0.0505
3959.5,0.0505
3959,0.0505
3958.5,0.0505
3958,0.0505
3957.5,0.0506
3957,0.0506
3956.5,0.0508
3956,0.0509
3955.5,0.0511
3955,0.0513
3954.5,0.0515
3954,0.0518
3953.5,0.052
3953,0.0524
3952.5,0.0527
3952,0.0531
3951.5,0.0535
3951,0.054
3950.5,0.0544
3950,0.0549
3949.5,0.0554
3949,0.056
3948.5,0.0565
3948,0.0571
3947.5,0.0577
3947,0.0584
3946.5,0.0591
3946,0.0597
3945.5,0.0604
3945,0.0611
3944.5,0.0617
3944,0.0624
3943.5,0.0632
3943,0.0639
3942.5,0.0646
3942,0.0653
3941.5,0.0661
3941,0.0668
3940.5,0.0675
3940,0.0682
3939.5,0.0689
3939,0.0695
3938.5,0.0701
3938,0.0707
3937.5,0.0713
3937,0.0718
3936.5,0.0724
3936,0.0729
3935.5,0.0734
3935,0.0739
3934.5,0.0743
3934,0.0747
3933.5,0.0751
3933,0.0754
3932.5,0.0757
3932,0.076
3931.5,0.0763
3931,0.0765
3930.5,0.0766
3930,0.0768
3929.5,0.077
3929,0.0772
3928.5,0.0773
3928,0.0773
3927.5,0.0773
3927,0.0773
3926.5,0.0773
3926,0.0772
3925.5,0.0771
3925,0.077
3924.5,0.0768
3924,0.0767
3923.5,0.0765
3923,0.0762
3922.5,0.076
3922,0.0757
3921.5,0.0754
3921,0.0751
3920.5,0.0747
3920,0.0743
3919.5,0.0738
3919,0.0734
3918.5,0.0729
3918,0.0724
3917.5,0.072
3917,0.0715
3916.5,0.071
3916,0.0704
3915.5,0.0698
3915,0.0692
3914.5,0.0687
3914,0.0681
3913.5,0.0675
3913,0.0668
3912.5,0.0662
3912,0.0656
3911.5,0.065
3911,0.0644
3910.5,0.0638
3910,0.0632
3909.5,0.0626
3909,0.062
3908.5,0.0613
3908,0.0607
3907.5,0.0601
3907,0.0595
3906.5,0.059
3906,0.0584
3905.5,0.0579
3905,0.0573
3904.5,0.0568
3904,0.0563
3903.5,0.0558
3903,0.0553
3902.5,0.0548
3902,0.0543
3901.5,0.0539
3901,0.0535
3900.5,0.0532
3900,0.0528
3899.5,0.0524
3899,0.0521
3898.5,0.0518
3898,0.0515
3897.5,0.0512
3897,0.0509
3896.5,0.0507
3896,0.0505
3895.5,0.0503
3895,0.0502
3894.5,0.05
3894,0.0499
3893.5,0.0498
3893,0.0497
3892.5,0.0497
3892,0.0497
3891.5,0.0497
3891,0.0497
3890.5,0.0498
3890,0.0499
3889.5,0.05
3889,0.0502
3888.5,0.0505
3888,0.0507
3887.5,0.051
3887,0.0513
3886.5,0.0515
3886,0.0519
3885.5,0.0522
3885,0.0525
3884.5,0.0528
3884,0.0532
3883.5,0.0536
3883,0.0541
3882.5,0.0546
3882,0.0552
3881.5,0.0557
3881,0.0562
3880.5,0.0568
3880,0.0575
3879.5,0.0581
3879,0.0587
3878.5,0.0593
3878,0.0599
3877.5,0.0606
3877,0.0612
3876.5,0.0619
3876,0.0626
3875.5,0.0632
3875,0.0638
3874.5,0.0643
3874,0.0649
3873.5,0.0655
3873,0.066
3872.5,0.0666
3872,0.067
3871.5,0.0675
3871,0.068
3870.5,0.0686
3870,0.0692
3869.5,0.0697
3869,0.0702
3868.5,0.0706
3868,0.071
3867.5,0.0714
3867,0.0718
3866.5,0.0721
3866,0.0724
3865.5,0.0727
3865,0.0729
3864.5,0.0731
3864,0.0734
3863.5,0.0736
3863,0.0738
3862.5,0.0739
3862,0.074
3861.5,0.0741
3861,0.0741
3860.5,0.0741
3860,0.074
3859.5,0.0738
3859,0.0737
3858.5,0.0735
3858,0.0731
3857.5,0.0727
3857,0.0721
3856.5,0.0717
3856,0.0713
3855.5,0.071
3855,0.0707
3854.5,0.0704
3854,0.0701
3853.5,0.0699
3853,0.0698
3852.5,0.0696
3852,0.0693
3851.5,0.0689
3851,0.0684
3850.5,0.0679
3850,0.0674
3849.5,0.0668
3849,0.0663
3848.5,0.0658
3848,0.0653
3847.5,0.0647
3847,0.0641
3846.5,0.0634
3846,0.0628
3845.5,0.0622
3845,0.0616
3844.5,0.061
3844,0.0603
3843.5,0.0597
3843,0.0591
3842.5,0.0586
3842,0.058
3841.5,0.0573
3841,0.0566
3840.5,0.0559
3840,0.0553
3839.5,0.0548
3839,0.0544
3838.5,0.0539
3838,0.0534
3837.5,0.053
3837,0.0527
3836.5,0.0524
3836,0.0521
3835.5,0.0516
3835,0.0511
3834.5,0.0507
3834,0.0503
3833.5,0.05
3833,0.0497
3832.5,0.0495
3832,0.0492
3831.5,0.049
3831,0.0489
3830.5,0.0487
3830,0.0486
3829.5,0.0485
3829,0.0484
3828.5,0.0483
3828,0.0483
3827.5,0.0483
3827,0.0484
3826.5,0.0485
3826,0.0486
3825.5,0.0487
3825,0.0489
3824.5,0.0491
3824,0.0493
3823.5,0.0495
3823,0.0498
3822.5,0.05
3822,0.0503
3821.5,0.0505
3821,0.0509
3820.5,0.0512
3820,0.0516
3819.5,0.052
3819,0.0524
3818.5,0.0529
3818,0.0534
3817.5,0.0538
3817,0.0543
3816.5,0.0548
3816,0.0553
3815.5,0.0559
3815,0.0565
3814.5,0.0571
3814,0.0577
3813.5,0.0583
3813,0.0591
3812.5,0.0598
3812,0.0606
3811.5,0.0613
3811,0.062
3810.5,0.0627
3810,0.0634
3809.5,0.064
3809,0.0647
3808.5,0.0652
3808,0.0658
3807.5,0.0664
3807,0.0671
3806.5,0.0678
3806,0.0684
3805.5,0.069
3805,0.0696
3804.5,0.0702
3804,0.0708
3803.5,0.0713
3803,0.0718
3802.5,0.0722
3802,0.0727
3801.5,0.0732
3801,0.0738
3800.5,0.0742
3800,0.0746
3799.5,0.0749
3799,0.0752
3798.5,0.0755
3798,0.0758
3797.5,0.076
3797,0.0761
3796.5,0.0763
3796,0.0764
3795.5,0.0765
3795,0.0766
3794.5,0.0765
3794,0.0765
3793.5,0.0764
3793,0.0762
3792.5,0.0761
3792,0.0759
3791.5,0.0757
3791,0.0754
3790.5,0.0752
3790,0.0749
3789.5,0.0746
3789,0.0743
3788.5,0.0739
3788,0.0735
3787.5,0.073
3787,0.0725
3786.5,0.072
3786,0.0715
3785.5,0.0709
3785,0.0704
3784.5,0.0698
3784,0.0692
3783.5,0.0687
3783,0.068
3782.5,0.0674
3782,0.0668
3781.5,0.0662
3781,0.0656
3780.5,0.065
3780,0.0643
3779.5,0.0637
3779,0.0631
3778.5,0.0625
3778,0.0619
3777.5,0.0613
3777,0.0606
3776.5,0.06
3776,0.0593
3775.5,0.0587
3775,0.0581
3774.5,0.0574
3774,0.0567
3773.5,0.0561
3773,0.0555
3772.5,0.0549
3772,0.0544
3771.5,0.0539
3771,0.0534
3770.5,0.0529
3770,0.0525
3769.5,0.052
3769,0.0516
3768.5,0.0511
3768,0.0507
3767.5,0.0503
3767,0.0499
3766.5,0.0495
3766,0.0492
3765.5,0.0489
3765,0.0486
3764.5,0.0484
3764,0.0482
3763.5,0.048
3763,0.0478
3762.5,0.0476
3762,0.0474
3761.5,0.0472
3761,0.0471
3760.5,0.0469
3760,0.0468
3759.5,0.0467
3759,0.0467
3758.5,0.0467
3758,0.0467
3757.5,0.0468
3757,0.0468
3756.5,0.0469
3756,0.047
3755.5,0.0472
3755,0.0474
3754.5,0.0476
3754,0.0479
3753.5,0.0481
3753,0.0483
3752.5,0.0486
3752,0.0489
3751.5,0.0493
3751,0.0496
3750.5,0.0498
3750,0.0502
3749.5,0.0507
3749,0.0513
3748.5,0.0518
3748,0.0524
3747.5,0.053
3747,0.0538
3746.5,0.0546
3746,0.0553
3745.5,0.056
3745,0.0567
3744.5,0.0575
3744,0.0582
3743.5,0.059
3743,0.0597
3742.5,0.0604
3742,0.0613
3741.5,0.0623
3741,0.0634
3740.5,0.0643
3740,0.0652
3739.5,0.066
3739,0.0669
3738.5,0.0677
3738,0.0685
3737.5,0.0693
3737,0.07
3736.5,0.0707
3736,0.0714
3735.5,0.0721
3735,0.0728
3734.5,0.0735
3734,0.0742
3733.5,0.0749
3733,0.0755
3732.5,0.0761
3732,0.0766
3731.5,0.0772
3731,0.0776
3730.5,0.078
3730,0.0783
3729.5,0.0786
3729,0.0789
3728.5,0.0791
3728,0.0793
3727.5,0.0794
3727,0.0795
3726.5,0.0796
3726,0.0796
3725.5,0.0795
3725,0.0793
3724.5,0.0791
3724,0.0789
3723.5,0.0786
3723,0.0782
3722.5,0.0778
3722,0.0773
3721.5,0.0767
3721,0.076
3720.5,0.0753
3720,0.0746
3719.5,0.0737
3719,0.0728
3718.5,0.0719
3718,0.071
3717.5,0.0702
3717,0.0694
3716.5,0.0685
3716,0.0676
3715.5,0.0666
3715,0.0656
3714.5,0.0647
3714,0.064
3713.5,0.0634
3713,0.0629
3712.5,0.0623
3712,0.0618
3711.5,0.0613
3711,0.061
3710.5,0.0606
3710,0.0602
3709.5,0.0598
3709,0.0593
3708.5,0.0589
3708,0.0584
3707.5,0.058
3707,0.0576
3706.5,0.0572
3706,0.0568
3705.5,0.0564
3705,0.0561
3704.5,0.0557
3704,0.0554
3703.5,0.0551
3703,0.0548
3702.5,0.0544
3702,0.054
3701.5,0.0536
3701,0.0532
3700.5,0.0527
3700,0.0523
3699.5,0.0518
3699,0.0513
3698.5,0.0508
3698,0.0504
3697.5,0.0499
3697,0.0494
3696.5,0.0489
3696,0.0484
3695.5,0.048
3695,0.0476
3694.5,0.0472
3694,0.0469
3693.5,0.0466
3693,0.0462
3692.5,0.046
3692,0.0459
3691.5,0.0458
3691,0.0457
3690.5,0.0458
3690,0.0459
3689.5,0.046
3689,0.0461
3688.5,0.0464
3688,0.0467
3687.5,0.047
3687,0.0474
3686.5,0.0479
3686,0.0485
3685.5,0.0491
3685,0.0498
3684.5,0.0506
3684,0.0514
3683.5,0.0521
3683,0.0527
3682.5,0.0535
3682,0.0542
3681.5,0.0549
3681,0.0556
3680.5,0.0564
3680,0.0571
3679.5,0.0579
3679,0.0586
3678.5,0.0594
3678,0.0601
3677.5,0.0608
3677,0.0614
3676.5,0.062
3676,0.0626
3675.5,0.0632
3675,0.0638
3674.5,0.0644
3674,0.0651
3673.5,0.0658
3673,0.0665
3672.5,0.0671
3672,0.0678
3671.5,0.0684
3671,0.069
3670.5,0.0697
3670,0.0702
3669.5,0.0708
3669,0.0713
3668.5,0.0719
3668,0.0726
3667.5,0.0732
3667,0.0737
3666.5,0.0741
3666,0.0746
3665.5,0.075
3665,0.0755
3664.5,0.0759
3664,0.0763
3663.5,0.0767
3663,0.0771
3662.5,0.0774
3662,0.0778
3661.5,0.0782
3661,0.0785
3660.5,0.0788
3660,0.079
3659.5,0.0792
3659,0.0793
3658.5,0.0795
3658,0.0798
3657.5,0.0801
3657,0.0804
3656.5,0.0806
3656,0.0809
3655.5,0.0812
3655,0.0814
3654.5,0.0816
3654,0.0816
3653.5,0.0816
3653,0.0816
3652.5,0.0816
3652,0.0816
3651.5,0.0816
3651,0.0817
3650.5,0.0817
3650,0.0817
3649.5,0.0817
3649,0.0817
3648.5,0.0816
3648,0.0814
3647.5,0.0811
3647,0.0806
3646.5,0.0801
3646,0.0794
3645.5,0.0786
3645,0.0777
3644.5,0.0767
3644,0.0755
3643.5,0.0744
3643,0.0731
3642.5,0.0718
3642,0.0704
3641.5,0.069
3641,0.0676
3640.5,0.0662
3640,0.0648
3639.5,0.0634
3639,0.0621
3638.5,0.0609
3638,0.0597
3637.5,0.0586
3637,0.0575
3636.5,0.0565
3636,0.0556
3635.5,0.0548
3635,0.054
3634.5,0.0533
3634,0.0527
3633.5,0.0522
3633,0.0518
3632.5,0.0514
3632,0.0511
3631.5,0.0508
3631,0.0505
3630.5,0.0504
3630,0.0503
3629.5,0.0503
3629,0.0504
3628.5,0.0506
3628,0.0509
3627.5,0.0513
3627,0.0516
3626.5,0.0521
3626,0.0526
3625.5,0.0531
3625,0.0537
3624.5,0.0542
3624,0.0548
3623.5,0.0553
3623,0.0559
3622.5,0.0564
3622,0.0569
3621.5,0.0573
3621,0.0576
3620.5,0.0579
3620,0.0581
3619.5,0.0583
3619,0.0584
3618.5,0.0583
3618,0.0582
3617.5,0.0581
3617,0.0579
3616.5,0.0578
3616,0.0577
3615.5,0.0576
3615,0.0577
3614.5,0.0577
3614,0.0579
3613.5,0.058
3613,0.0582
3612.5,0.0585
3612,0.0589
3611.5,0.0593
3611,0.0598
3610.5,0.0603
3610,0.0609
3609.5,0.0616
3609,0.0623
3608.5,0.063
3608,0.0637
3607.5,0.0643
3607,0.065
3606.5,0.0657
3606,0.0663
3605.5,0.067
3605,0.0676
3604.5,0.0682
3604,0.0688
3603.5,0.0694
3603,0.0699
3602.5,0.0704
3602,0.0709
3601.5,0.0714
3601,0.0717
3600.5,0.0721
3600,0.0725
3599.5,0.0728
3599,0.0731
3598.5,0.0734
3598,0.0736
3597.5,0.0737
3597,0.0738
3596.5,0.074
3596,0.074
3595.5,0.0741
3595,0.0741
3594.5,0.0741
3594,0.0741
3593.5,0.074
3593,0.0739
3592.5,0.0736
3592,0.0733
3591.5,0.0729
3591,0.0725
3590.5,0.0721
3590,0.0716
3589.5,0.071
3589,0.0705
3588.5,0.07
3588,0.0696
3587.5,0.0691
3587,0.0686
3586.5,0.0681
3586,0.0676
3585.5,0.067
3585,0.0664
3584.5,0.0658
3584,0.0651
3583.5,0.0643
3583,0.0636
3582.5,0.0629
3582,0.0621
3581.5,0.0614
3581,0.0607
3580.5,0.0599
3580,0.0591
3579.5,0.0583
3579,0.0575
3578.5,0.0567
3578,0.0559
3577.5,0.0551
3577,0.0544
3576.5,0.0536
3576,0.0528
3575.5,0.052
3575,0.0513
3574.5,0.0506
3574,0.0498
3573.5,0.0491
3573,0.0484
3572.5,0.0477
3572,0.0471
3571.5,0.0465
3571,0.0458
3570.5,0.0452
3570,0.0446
3569.5,0.044
3569,0.0435
3568.5,0.0429
3568,0.0424
3567.5,0.042
3567,0.0416
3566.5,0.0413
3566,0.041
3565.5,0.0408
3565,0.0406
3564.5,0.0404
3564,0.0402
3563.5,0.0401
3563,0.04
3562.5,0.04
3562,0.0399
3561.5,0.0399
3561,0.04
3560.5,0.04
3560,0.0401
3559.5,0.0403
3559,0.0404
3558.5,0.0406
3558,0.0408
3557.5,0.0411
3557,0.0414
3556.5,0.0417
3556,0.0421
3555.5,0.0424
3555,0.0428
3554.5,0.0433
3554,0.0438
3553.5,0.0443
3553,0.0448
3552.5,0.0453
3552,0.0459
3551.5,0.0465
3551,0.0471
3550.5,0.0477
3550,0.0483
3549.5,0.049
3549,0.0497
3548.5,0.0504
3548,0.0512
3547.5,0.052
3547,0.0529
3546.5,0.0537
3546,0.0544
3545.5,0.0552
3545,0.056
3544.5,0.0568
3544,0.0576
3543.5,0.0584
3543,0.0592
3542.5,0.06
3542,0.0607
3541.5,0.0615
3541,0.0622
3540.5,0.063
3540,0.0638
3539.5,0.0645
3539,0.0652
3538.5,0.0659
3538,0.0666
3537.5,0.0672
3537,0.0678
3536.5,0.0684
3536,0.0689
3535.5,0.0695
3535,0.07
3534.5,0.0705
3534,0.071
3533.5,0.0714
3533,0.0718
3532.5,0.0721
3532,0.0724
3531.5,0.0727
3531,0.0729
3530.5,0.0731
3530,0.0733
3529.5,0.0735
3529,0.0737
3528.5,0.0738
3528,0.0738
3527.5,0.0738
3527,0.0738
3526.5,0.0737
3526,0.0736
3525.5,0.0735
3525,0.0734
3524.5,0.0732
3524,0.0729
3523.5,0.0727
3523,0.0724
3522.5,0.0721
3522,0.0717
3521.5,0.0713
3521,0.0709
3520.5,0.0705
3520,0.0701
3519.5,0.0696
3519,0.0691
3518.5,0.0685
3518,0.0679
3517.5,0.0673
3517,0.0667
3516.5,0.0661
3516,0.0654
3515.5,0.0648
3515,0.0642
3514.5,0.0635
3514,0.0629
3513.5,0.0622
3513,0.0615
3512.5,0.0608
3512,0.0601
3511.5,0.0594
3511,0.0586
3510.5,0.0579
3510,0.0572
3509.5,0.0565
3509,0.0558
3508.5,0.0551
3508,0.0545
3507.5,0.0538
3507,0.0532
3506.5,0.0525
3506,0.0519
3505.5,0.0513
3505,0.0507
3504.5,0.0501
3504,0.0495
3503.5,0.049
3503,0.0485
3502.5,0.0481
3502,0.0476
3501.5,0.0472
3501,0.0469
3500.5,0.0466
3500,0.0463
3499.5,0.046
3499,0.0457
3498.5,0.0455
3498,0.0453
3497.5,0.045
3497,0.0449
3496.5,0.0447
3496,0.0447
3495.5,0.0447
3495,0.0447
3494.5,0.0447
3494,0.0448
3493.5,0.0449
3493,0.0451
3492.5,0.0452
3492,0.0454
3491.5,0.0457
3491,0.046
3490.5,0.0463
3490,0.0466
3489.5,0.047
3489,0.0474
3488.5,0.0479
3488,0.0484
3487.5,0.0489
3487,0.0494
3486.5,0.05
3486,0.0506
3485.5,0.0512
3485,0.0517
3484.5,0.0523
3484,0.053
3483.5,0.0537
3483,0.0544
3482.5,0.0551
3482,0.0558
3481.5,0.0566
3481,0.0573
3480.5,0.0581
3480,0.059
3479.5,0.0598
3479,0.0606
3478.5,0.0614
3478,0.0623
3477.5,0.0631
3477,0.0639
3476.5,0.0647
3476,0.0656
3475.5,0.0664
3475,0.0672
3474.5,0.068
3474,0.0688
3473.5,0.0695
3473,0.0702
3472.5,0.0709
3472,0.0715
3471.5,0.0722
3471,0.0728
3470.5,0.0734
3470,0.074
3469.5,0.0746
3469,0.0751
3468.5,0.0756
3468,0.0761
3467.5,0.0765
3467,0.0769
3466.5,0.0773
3466,0.0776
3465.5,0.0778
3465,0.0781
3464.5,0.0783
3464,0.0785
3463.5,0.0787
3463,0.0788
3462.5,0.0789
3462,0.079
3461.5,0.079
3461,0.079
3460.5,0.0789
3460,0.0788
3459.5,0.0786
3459,0.0784
3458.5,0.0782
3458,0.0779
3457.5,0.0776
3457,0.0772
3456.5,0.0769
3456,0.0765
3455.5,0.0761
3455,0.0757
3454.5,0.0752
3454,0.0747
3453.5,0.0742
3453,0.0737
3452.5,0.0731
3452,0.0725
3451.5,0.0719
3451,0.0712
3450.5,0.0705
3450,0.0699
3449.5,0.0692
3449,0.0685
3448.5,0.0679
3448,0.0672
3447.5,0.0666
3447,0.066
3446.5,0.0653
3446,0.0647
3445.5,0.064
3445,0.0633
3444.5,0.0625
3444,0.0618
3443.5,0.061
3443,0.0603
3442.5,0.0595
3442,0.0588
3441.5,0.0581
3441,0.0575
3440.5,0.0568
3440,0.0561
3439.5,0.0554
3439,0.0547
3438.5,0.054
3438,0.0533
3437.5,0.0525
3437,0.0518
3436.5,0.0511
3436,0.0504
3435.5,0.0498
3435,0.0491
3434.5,0.0485
3434,0.0479
3433.5,0.0473
3433,0.0468
3432.5,0.0462
3432,0.0458
3431.5,0.0453
3431,0.045
3430.5,0.0446
3430,0.0443
3429.5,0.044
3429,0.0438
3428.5,0.0436
3428,0.0434
3427.5,0.0432
3427,0.0431
3426.5,0.043
3426,0.043
3425.5,0.043
3425,0.043
3424.5,0.0431
3424,0.0432
3423.5,0.0434
3423,0.0437
3422.5,0.044
3422,0.0443
3421.5,0.0446
3421,0.045
3420.5,0.0454
3420,0.0459
3419.5,0.0463
3419,0.0468
3418.5,0.0473
3418,0.0479
3417.5,0.0485
3417,0.0492
3416.5,0.0499
3416,0.0506
3415.5,0.0514
3415,0.0521
3414.5,0.0529
3414,0.0537
3413.5,0.0544
3413,0.0552
3412.5,0.056
3412,0.0567
3411.5,0.0575
3411,0.0583
3410.5,0.0591
3410,0.0599
3409.5,0.0607
3409,0.0615
3408.5,0.0622
3408,0.063
3407.5,0.0638
3407,0.0645
3406.5,0.0652
3406,0.0659
3405.5,0.0666
3405,0.0673
3404.5,0.068
3404,0.0687
3403.5,0.0693
3403,0.0699
3402.5,0.0705
3402,0.071
3401.5,0.0715
3401,0.0719
3400.5,0.0723
3400,0.0726
3399.5,0.0728
3399,0.073
3398.5,0.0733
3398,0.0735
3397.5,0.0737
3397,0.0738
3396.5,0.0739
3396,0.074
3395.5,0.074
3395,0.074
3394.5,0.074
3394,0.0739
3393.5,0.0738
3393,0.0736
3392.5,0.0734
3392,0.0731
3391.5,0.0728
3391,0.0725
3390.5,0.0721
3390,0.0717
3389.5,0.0713
3389,0.0709
3388.5,0.0704
3388,0.0699
3387.5,0.0694
3387,0.0688
3386.5,0.0682
3386,0.0676
3385.5,0.0669
3385,0.0663
3384.5,0.0656
3384,0.0649
3383.5,0.0643
3383,0.0636
3382.5,0.0628
3382,0.062
3381.5,0.0613
3381,0.0605
3380.5,0.0597
3380,0.0589
3379.5,0.0581
3379,0.0572
3378.5,0.0564
3378,0.0555
3377.5,0.0547
3377,0.0539
3376.5,0.0531
3376,0.0522
3375.5,0.0514
3375,0.0506
3374.5,0.0499
3374,0.0491
3373.5,0.0483
3373,0.0476
3372.5,0.0468
3372,0.0461
3371.5,0.0455
3371,0.0448
3370.5,0.0442
3370,0.0436
3369.5,0.043
3369,0.0424
3368.5,0.0419
3368,0.0415
3367.5,0.041
3367,0.0406
3366.5,0.0402
3366,0.0399
3365.5,0.0396
3365,0.0393
3364.5,0.0391
3364,0.0389
3363.5,0.0388
3363,0.0387
3362.5,0.0387
3362,0.0386
3361.5,0.0387
3361,0.0387
3360.5,0.0388
3360,0.0389
3359.5,0.039
3359,0.0392
3358.5,0.0395
3358,0.0397
3357.5,0.04
3357,0.0404
3356.5,0.0408
3356,0.0412
3355.5,0.0416
3355,0.0422
3354.5,0.0427
3354,0.0433
3353.5,0.0439
3353,0.0445
3352.5,0.0452
3352,0.0458
3351.5,0.0465
3351,0.0472
3350.5,0.0479
3350,0.0486
3349.5,0.0494
3349,0.0502
3348.5,0.051
3348,0.0517
3347.5,0.0526
3347,0.0534
3346.5,0.0542
3346,0.0551
3345.5,0.0559
3345,0.0568
3344.5,0.0577
3344,0.0585
3343.5,0.0594
3343,0.0602
3342.5,0.061
3342,0.0619
3341.5,0.0627
3341,0.0635
3340.5,0.0642
3340,0.065
3339.5,0.0657
3339,0.0664
3338.5,0.067
3338,0.0676
3337.5,0.0681
3337,0.0687
3336.5,0.0693
3336,0.0698
3335.5,0.0703
3335,0.0708
3334.5,0.0712
3334,0.0716
3333.5,0.0719
3333,0.0722
3332.5,0.0725
3332,0.0727
3331.5,0.0729
3331,0.073
3330.5,0.0731
3330,0.0732
3329.5,0.0732
3329,0.0731
3328.5,0.0731
3328,0.073
3327.5,0.0728
3327,0.0727
3326.5,0.0724
3326,0.0722
3325.5,0.0719
3325,0.0715
3324.5,0.071
3324,0.0705
3323.5,0.07
3323,0.0695
3322.5,0.069
3322,0.0684
3321.5,0.0679
3321,0.0673
3320.5,0.0667
3320,0.066
3319.5,0.0654
3319,0.0646
3318.5,0.0639
3318,0.0631
3317.5,0.0624
3317,0.0616
3316.5,0.0608
3316,0.06
3315.5,0.0592
3315,0.0584
3314.5,0.0575
3314,0.0567
3313.5,0.0559
3313,0.0551
3312.5,0.0543
3312,0.0535
3311.5,0.0527
3311,0.0519
3310.5,0.0511
3310,0.0504
3309.5,0.0497
3309,0.049
3308.5,0.0483
3308,0.0476
3307.5,0.047
3307,0.0464
3306.5,0.0457
3306,0.045
3305.5,0.0444
3305,0.0437
3304.5,0.043
3304,0.0423
3303.5,0.0417
3303,0.0411
3302.5,0.0406
3302,0.0401
3301.5,0.0397
3301,0.0394
3300.5,0.0391
3300,0.0389
3299.5,0.0387
3299,0.0385
3298.5,0.0384
3298,0.0383
3297.5,0.0382
3297,0.0382
3296.5,0.0382
3296,0.0383
3295.5,0.0383
3295,0.0384
3294.5,0.0386
3294,0.0388
3293.5,0.0391
3293,0.0394
3292.5,0.0396
3292,0.0399
3291.5,0.0403
3291,0.0407
3290.5,0.0411
3290,0.0416
3289.5,0.0421
3289,0.0427
3288.5,0.0433
3288,0.044
3287.5,0.0446
3287,0.0454
3286.5,0.0461
3286,0.0469
3285.5,0.0477
3285,0.0485
3284.5,0.0493
3284,0.0501
3283.5,0.051
3283,0.0519
3282.5,0.0528
3282,0.0537
3281.5,0.0546
3281,0.0555
3280.5,0.0564
3280,0.0573
3279.5,0.0582
3279,0.0591
3278.5,0.06
3278,0.0609
3277.5,0.0618
3277,0.0627
3276.5,0.0636
3276,0.0644
3275.5,0.0653
3275,0.0661
3274.5,0.067
3274,0.0679
3273.5,0.0687
3273,0.0695
3272.5,0.0703
3272,0.071
3271.5,0.0716
3271,0.0722
3270.5,0.0727
3270,0.0732
3269.5,0.0736
3269,0.0741
3268.5,0.0745
3268,0.075
3267.5,0.0754
3267,0.0757
3266.5,0.076
3266,0.0763
3265.5,0.0765
3265,0.0767
3264.5,0.0768
3264,0.0769
3263.5,0.0769
3263,0.0769
3262.5,0.0768
3262,0.0767
3261.5,0.0765
3261,0.0764
3260.5,0.0762
3260,0.0759
3259.5,0.0757
3259,0.0754
3258.5,0.075
3258,0.0746
3257.5,0.0741
3257,0.0736
3256.5,0.0731
3256,0.0726
3255.5,0.072
3255,0.0714
3254.5,0.0708
3254,0.0702
3253.5,0.0695
3253,0.0688
3252.5,0.068
3252,0.0672
3251.5,0.0664
3251,0.0656
3250.5,0.0648
3250,0.064
3249.5,0.0632
3249,0.0624
3248.5,0.0616
3248,0.0607
3247.5,0.0599
3247,0.059
3246.5,0.0581
3246,0.0573
3245.5,0.0565
3245,0.0557
3244.5,0.055
3244,0.0542
3243.5,0.0535
3243,0.0528
3242.5,0.0521
3242,0.0515
3241.5,0.0508
3241,0.0502
3240.5,0.0496
3240,0.049
3239.5,0.0484
3239,0.0478
3238.5,0.0473
3238,0.0468
3237.5,0.0463
3237,0.0459
3236.5,0.0455
3236,0.0451
3235.5,0.0448
3235,0.0445
3234.5,0.0443
3234,0.044
3233.5,0.0438
3233,0.0437
3232.5,0.0436
3232,0.0436
3231.5,0.0437
3231,0.0437
3230.5,0.0438
3230,0.044
3229.5,0.0442
3229,0.0444
3228.5,0.0446
3228,0.0449
3227.5,0.0453
3227,0.0456
3226.5,0.0461
3226,0.0466
3225.5,0.0471
3225,0.0477
3224.5,0.0483
3224,0.0489
3223.5,0.0496
3223,0.0503
3222.5,0.051
3222,0.0518
3221.5,0.0526
3221,0.0535
3220.5,0.0543
3220,0.0552
3219.5,0.0562
3219,0.0571
3218.5,0.0581
3218,0.0592
3217.5,0.0602
3217,0.0612
3216.5,0.0623
3216,0.0633
3215.5,0.0643
3215,0.0654
3214.5,0.0665
3214,0.0676
3213.5,0.0687
3213,0.0697
3212.5,7.08E-02
3212,7.19E-02
3211.5,7.30E-02
3211,7.41E-02
3210.5,7.52E-02
3210,7.62E-02
3209.5,7.72E-02
3209,7.82E-02
3208.5,7.92E-02
3208,8.01E-02
3207.5,8.10E-02
3207,8.19E-02
3206.5,8.27E-02
3206,8.35E-02
3205.5,8.43E-02
3205,8.50E-02
3204.5,8.57E-02
3204,8.63E-02
3203.5,8.68E-02
3203,8.73E-02
3202.5,8.78E-02
3202,8.82E-02
3201.5,8.85E-02
3201,8.88E-02
3200.5,8.90E-02
3200,8.91E-02
3199.5,8.92E-02
3199,8.92E-02
3198.5,8.92E-02
3198,8.91E-02
3197.5,0.0889
3197,0.0886
3196.5,0.0883
3196,0.088
3195.5,0.0876
3195,0.0872
3194.5,0.0867
3194,0.0862
3193.5,0.0856
3193,0.0851
3192.5,0.0845
3192,0.0838
3191.5,0.0832
3191,0.0826
3190.5,0.0819
3190,0.0811
3189.5,0.0804
3189,0.0796
3188.5,0.0789
3188,0.0781
3187.5,0.0773
3187,0.0766
3186.5,0.0758
3186,0.0751
3185.5,0.0743
3185,0.0734
3184.5,0.0726
3184,0.0717
3183.5,0.0709
3183,0.07
3182.5,0.0692
3182,0.0683
3181.5,0.0675
3181,0.0668
3180.5,0.066
3180,0.0653
3179.5,0.0645
3179,0.0638
3178.5,0.0631
3178,0.0625
3177.5,0.0619
3177,0.0613
3176.5,0.0608
3176,0.0603
3175.5,0.0599
3175,0.0595
3174.5,0.0593
3174,0.0591
3173.5,0.059
3173,0.059
3172.5,0.0592
3172,0.0594
3171.5,0.0597
3171,0.0601
3170.5,0.0607
3170,0.0613
3169.5,0.0622
3169,0.0631
3168.5,0.0642
3168,0.0653
3167.5,0.0666
3167,0.0679
3166.5,0.0693
3166,0.0707
3165.5,0.0722
3165,0.0736
3164.5,0.0749
3164,0.0762
3163.5,0.0772
3163,0.0781
3162.5,0.0788
3162,0.0793
3161.5,0.0795
3161,0.0796
3160.5,0.0796
3160,0.0795
3159.5,0.0793
3159,0.079
3158.5,0.0787
3158,0.0785
3157.5,0.0783
3157,0.0781
3156.5,0.0781
3156,0.0781
3155.5,0.0784
3155,0.0787
3154.5,0.0792
3154,0.0797
3153.5,0.0804
3153,0.081
3152.5,0.0817
3152,0.0825
3151.5,0.0832
3151,0.084
3150.5,0.0849
3150,0.0858
3149.5,0.0867
3149,0.0876
3148.5,0.0886
3148,0.0895
3147.5,0.0904
3147,0.0913
3146.5,0.0922
3146,0.0931
3145.5,0.0939
3145,0.0947
3144.5,0.0955
3144,0.0963
3143.5,0.0969
3143,0.0976
3142.5,0.0983
3142,0.0989
3141.5,0.0995
3141,0.1001
3140.5,0.1006
3140,0.101
3139.5,0.1014
3139,0.1017
3138.5,0.102
3138,0.1022
3137.5,0.1024
3137,0.1027
3136.5,0.1029
3136,0.103
3135.5,0.1032
3135,0.1032
3134.5,0.1033
3134,0.1033
3133.5,0.1033
3133,0.1033
3132.5,0.1032
3132,0.1031
3131.5,0.1029
3131,0.1027
3130.5,0.1026
3130,0.1024
3129.5,0.1022
3129,0.102
3128.5,0.1018
3128,0.1016
3127.5,0.1015
3127,0.1013
3126.5,0.1012
3126,0.101
3125.5,0.1009
3125,0.1009
3124.5,0.1009
3124,0.101
3123.5,0.1011
3123,0.1014
3122.5,0.1018
3122,0.1023
3121.5,0.1029
3121,0.1036
3120.5,0.1045
3120,0.1056
3119.5,0.1068
3119,0.1084
3118.5,0.1101
3118,0.1122
3117.5,0.1146
3117,0.1173
3116.5,0.1203
3116,0.1238
3115.5,0.1277
3115,0.132
3114.5,0.1369
3114,0.1423
3113.5,0.1484
3113,0.1551
3112.5,0.1624
3112,0.1705
3111.5,0.1793
3111,0.1889
3110.5,0.1992
3110,0.2103
3109.5,0.222
3109,0.2342
3108.5,0.2469
3108,0.2598
3107.5,0.2727
3107,0.2854
3106.5,0.2975
3106,0.3088
3105.5,0.319
3105,0.3278
3104.5,0.335
3104,0.3405
3103.5,0.3441
3103,0.346
3102.5,0.3462
3102,0.345
3101.5,0.3424
3101,0.339
3100.5,0.3349
3100,0.3306
3099.5,0.3264
3099,0.3224
3098.5,0.319
3098,0.3163
3097.5,0.3145
3097,0.3138
3096.5,0.3143
3096,0.3162
3095.5,0.3194
3095,0.324
3094.5,0.3303
3094,0.3383
3093.5,0.348
3093,0.3597
3092.5,0.3735
3092,0.3894
3091.5,0.4078
3091,0.4286
3090.5,0.4521
3090,0.4782
3089.5,0.5071
3089,0.5387
3088.5,0.5731
3088,0.6101
3087.5,0.6495
3087,0.6909
3086.5,0.7335
3086,0.7765
3085.5,0.8188
3085,0.859
3084.5,0.8955
3084,0.9269
3083.5,0.9516
3083,0.9683
3082.5,0.9763
3082,0.9751
3081.5,0.9653
3081,0.9479
3080.5,0.9244
3080,0.8967
3079.5,0.8664
3079,0.8351
3078.5,0.8043
3078,0.7749
3077.5,0.748
3077,0.724
3076.5,0.7032
3076,0.6859
3075.5,0.6719
3075,0.6613
3074.5,0.6537
3074,0.649
3073.5,0.6469
3073,0.6473
3072.5,0.6503
3072,0.6558
3071.5,0.6638
3071,0.6744
3070.5,0.6877
3070,0.7037
3069.5,0.7227
3069,0.7446
3068.5,0.7694
3068,0.7972
3067.5,0.8282
3067,0.8622
3066.5,0.8992
3066,0.9389
3065.5,0.981
3065,1.0252
3064.5,1.0709
3064,1.117
3063.5,1.1625
3063,1.2058
3062.5,1.2455
3062,1.28
3061.5,1.308
3061,1.3285
3060.5,1.3405
3060,1.3432
3059.5,1.3365
3059,1.3205
3058.5,1.296
3058,1.2639
3057.5,1.226
3057,1.1838
3056.5,1.139
3056,1.0932
3055.5,1.0475
3055,1.003
3054.5,0.9604
3054,0.9203
3053.5,0.8829
3053,0.8483
3052.5,0.8165
3052,0.7873
3051.5,0.7604
3051,0.7356
3050.5,0.7126
3050,0.6916
3049.5,0.6724
3049,0.6549
3048.5,0.6394
3048,0.6257
3047.5,0.6141
3047,0.6046
3046.5,0.5972
3046,0.592
3045.5,0.5893
3045,0.5889
3044.5,0.5911
3044,0.5957
3043.5,0.6027
3043,0.612
3042.5,0.6236
3042,0.6375
3041.5,0.6537
3041,0.6722
3040.5,0.6929
3040,0.7161
3039.5,0.7417
3039,0.7699
3038.5,0.8007
3038,0.8345
3037.5,0.8715
3037,0.912
3036.5,0.9564
3036,1.0048
3035.5,1.0574
3035,1.1144
3034.5,1.176
3034,1.2423
3033.5,1.3133
3033,1.389
3032.5,1.4688
3032,1.552
3031.5,1.6377
3031,1.7242
3030.5,1.8091
3030,1.89
3029.5,1.9645
3029,2.0315
3028.5,2.0898
3028,2.1385
3027.5,2.1774
3027,2.2071
3026.5,2.228
3026,2.2393
3025.5,2.2388
3025,2.2254
3024.5,2.1982
3024,2.1555
3023.5,2.0949
3023,2.0163
3022.5,1.9232
3022,1.8199
3021.5,1.7107
3021,1.5995
3020.5,1.4895
3020,1.3835
3019.5,1.2829
3019,1.1887
3018.5,1.1016
3018,1.0218
3017.5,0.949
3017,0.883
3016.5,0.8231
3016,0.7691
3015.5,0.7204
3015,0.6767
3014.5,0.6374
3014,0.6025
3013.5,0.5715
3013,0.5443
3012.5,0.5207
3012,0.5005
3011.5,0.4836
3011,0.4698
3010.5,0.459
3010,0.4512
3009.5,0.4462
3009,0.444
3008.5,0.4444
3008,0.4474
3007.5,0.4527
3007,0.4603
3006.5,0.4699
3006,0.4813
3005.5,0.4942
3005,0.5081
3004.5,0.5226
3004,0.537
3003.5,0.5506
3003,0.5628
3002.5,0.5725
3002,0.5791
3001.5,0.5818
3001,0.5801
3000.5,0.5738
3000,0.5629
2999.5,0.5477
2999,0.5289
2998.5,0.5072
2998,0.4836
2997.5,0.4592
2997,0.4347
2996.5,0.4109
2996,0.3884
2995.5,0.3677
2995,0.349
2994.5,0.3322
2994,0.3175
2993.5,0.3046
2993,0.2934
2992.5,0.2836
2992,0.2751
2991.5,0.2677
2991,0.2613
2990.5,0.2557
2990,0.2508
2989.5,0.2465
2989,0.2427
2988.5,0.2394
2988,0.2365
2987.5,0.2339
2987,0.2317
2986.5,0.2297
2986,0.228
2985.5,0.2266
2985,0.2254
2984.5,0.2245
2984,0.2238
2983.5,0.2234
2983,0.2232
2982.5,0.2233
2982,0.2236
2981.5,0.2241
2981,0.2249
2980.5,0.2258
2980,0.2268
2979.5,0.2279
2979,0.229
2978.5,0.2301
2978,0.2312
2977.5,0.2322
2977,0.233
2976.5,0.2337
2976,0.2343
2975.5,0.2347
2975,0.2351
2974.5,0.2354
2974,0.2358
2973.5,0.2364
2973,0.2371
2972.5,0.2381
2972,0.2394
2971.5,0.2411
2971,0.2432
2970.5,0.2457
2970,0.2486
2969.5,0.252
2969,0.2558
2968.5,0.2601
2968,0.2647
2967.5,0.2698
2967,0.2753
2966.5,0.2811
2966,0.2874
2965.5,0.294
2965,0.3009
2964.5,0.3083
2964,0.316
2963.5,0.3242
2963,0.3327
2962.5,0.3416
2962,0.351
2961.5,0.3607
2961,0.3708
2960.5,0.3813
2960,0.3921
2959.5,0.4034
2959,0.415
2958.5,0.4271
2958,0.4397
2957.5,0.4527
2957,0.4662
2956.5,0.4802
2956,0.4947
2955.5,0.5099
2955,0.5256
2954.5,0.5419
2954,0.5589
2953.5,0.5766
2953,0.5951
2952.5,0.6143
2952,0.6343
2951.5,0.6551
2951,0.6768
2950.5,0.6993
2950,0.7229
2949.5,0.7474
2949,0.7731
2948.5,0.7999
2948,0.8277
2947.5,0.8566
2947,0.8868
2946.5,0.9181
2946,0.9506
2945.5,0.9842
2945,1.019
2944.5,1.055
2944,1.0921
2943.5,1.1302
2943,1.1693
2942.5,1.2096
2942,1.2514
2941.5,1.2944
2941,1.3384
2940.5,1.3833
2940,1.429
2939.5,1.4757
2939,1.523
2938.5,1.5709
2938,1.6196
2937.5,1.6691
2937,1.719
2936.5,1.7686
2936,1.818
2935.5,1.867
2935,1.9146
2934.5,1.9601
2934,2.0036
2933.5,2.0462
2933,2.0882
2932.5,2.1289
2932,2.1679
2931.5,2.2057
2931,2.2418
2930.5,2.2741
2930,2.2998
2929.5,2.318
2929,2.3303
2928.5,2.34
2928,2.3499
2927.5,2.3615
2927,2.375
2926.5,2.3895
2926,2.4034
2925.5,2.4146
2925,2.4231
2924.5,2.431
2924,2.4407
2923.5,2.4535
2923,2.469
2922.5,2.4861
2922,2.5033
2921.5,2.5176
2921,2.5264
2920.5,2.5294
2920,2.5285
2919.5,2.525
2919,2.5196
2918.5,2.5126
2918,2.5037
2917.5,2.4915
2917,2.4741
2916.5,2.4514
2916,2.425
2915.5,2.3955
2915,2.3633
2914.5,2.3287
2914,2.2925
2913.5,2.2544
2913,2.2136
2912.5,2.1708
2912,2.1273
2911.5,2.0835
2911,2.0392
2910.5,1.9947
2910,1.9503
2909.5,1.9062
2909,1.8622
2908.5,1.8182
2908,1.7747
2907.5,1.7321
2907,1.6901
2906.5,1.6486
2906,1.6074
2905.5,1.5667
2905,1.5263
2904.5,1.4864
2904,1.4471
2903.5,1.4084
2903,1.3702
2902.5,1.3324
2902,1.2953
2901.5,1.2589
2901,1.2234
2900.5,1.1887
2900,1.1552
2899.5,1.1229
2899,1.0919
2898.5,1.0622
2898,1.0339
2897.5,1.0069
2897,0.9815
2896.5,0.9574
2896,0.9347
2895.5,0.9132
2895,0.893
2894.5,0.8738
2894,0.8559
2893.5,0.839
2893,0.8232
2892.5,0.8084
2892,0.7944
2891.5,0.7811
2891,0.7684
2890.5,0.7562
2890,0.7443
2889.5,0.7328
2889,0.7215
2888.5,0.7106
2888,0.6999
2887.5,0.6896
2887,0.6794
2886.5,0.6694
2886,0.6597
2885.5,0.65
2885,0.6405
2884.5,0.6309
2884,0.6215
2883.5,0.6121
2883,0.6028
2882.5,0.5935
2882,0.5842
2881.5,0.5749
2881,0.5657
2880.5,0.5565
2880,0.5473
2879.5,0.5383
2879,0.5295
2878.5,0.5208
2878,0.5123
2877.5,0.5041
2877,0.4961
2876.5,0.4884
2876,0.481
2875.5,0.474
2875,0.4675
2874.5,0.4615
2874,0.4561
2873.5,0.4511
2873,0.4468
2872.5,0.443
2872,0.4399
2871.5,0.4376
2871,0.4361
2870.5,0.4353
2870,0.4354
2869.5,0.4364
2869,0.4383
2868.5,0.4411
2868,0.4448
2867.5,0.4495
2867,0.4553
2866.5,0.462
2866,0.4699
2865.5,0.4788
2865,0.4888
2864.5,0.4999
2864,0.5121
2863.5,0.5254
2863,0.5397
2862.5,0.5549
2862,0.5711
2861.5,0.5881
2861,0.6061
2860.5,0.6247
2860,0.6441
2859.5,0.6642
2859,0.6847
2858.5,0.7057
2858,0.7268
2857.5,0.7481
2857,0.7693
2856.5,0.7904
2856,0.811
2855.5,0.831
2855,0.8504
2854.5,0.8687
2854,0.8859
2853.5,0.9019
2853,0.9163
2852.5,0.929
2852,0.9396
2851.5,0.948
2851,0.9542
2850.5,0.958
2850,0.9592
2849.5,0.9578
2849,0.9536
2848.5,0.9465
2848,0.9364
2847.5,0.9232
2847,0.907
2846.5,0.8877
2846,0.8656
2845.5,0.8408
2845,0.8136
2844.5,0.7841
2844,0.7528
2843.5,0.7201
2843,0.6862
2842.5,0.6518
2842,0.6171
2841.5,0.5827
2841,0.549
2840.5,0.5162
2840,0.4848
2839.5,0.4549
2839,0.4267
2838.5,0.4003
2838,0.3758
2837.5,0.3533
2837,0.3327
2836.5,0.314
2836,0.2971
2835.5,0.2818
2835,0.2681
2834.5,0.2558
2834,0.2448
2833.5,0.2349
2833,0.2261
2832.5,0.2182
2832,0.2112
2831.5,0.2048
2831,0.1991
2830.5,0.1938
2830,0.189
2829.5,0.1846
2829,0.1805
2828.5,0.1767
2828,0.1731
2827.5,0.1698
2827,0.1667
2826.5,0.1637
2826,0.1608
2825.5,0.1581
2825,0.1555
2824.5,0.153
2824,0.1506
2823.5,0.1483
2823,0.146
2822.5,0.1438
2822,0.1417
2821.5,0.1397
2821,0.1377
2820.5,0.1357
2820,0.1339
2819.5,0.1321
2819,0.1304
2818.5,0.1288
2818,0.1272
2817.5,0.1257
2817,0.1242
2816.5,0.1228
2816,0.1214
2815.5,0.1201
2815,0.1189
2814.5,0.1178
2814,0.1167
2813.5,0.1157
2813,0.1147
2812.5,0.1137
2812,0.1128
2811.5,0.1119
2811,0.111
2810.5,0.1102
2810,0.1094
2809.5,0.1085
2809,0.1077
2808.5,0.1069
2808,0.1061
2807.5,0.1053
2807,0.1046
2806.5,0.1038
2806,0.1031
2805.5,0.1023
2805,0.1016
2804.5,0.101
2804,0.1003
2803.5,0.0998
2803,0.0993
2802.5,0.0988
2802,0.0984
2801.5,0.0981
2801,0.0978
2800.5,0.0976
2800,0.0975
2799.5,0.0974
2799,0.0974
2798.5,0.0975
2798,0.0976
2797.5,0.0978
2797,0.098
2796.5,0.0983
2796,0.0986
2795.5,0.099
2795,0.0994
2794.5,0.0999
2794,0.1004
2793.5,0.101
2793,0.1016
2792.5,0.1022
2792,0.1028
2791.5,0.1035
2791,0.1043
2790.5,0.1051
2790,0.1059
2789.5,0.1068
2789,0.1076
2788.5,0.1085
2788,0.1094
2787.5,0.1102
2787,0.1111
2786.5,0.112
2786,0.1129
2785.5,0.1138
2785,0.1147
2784.5,0.1156
2784,0.1164
2783.5,0.1172
2783,0.1179
2782.5,0.1186
2782,0.1193
2781.5,0.1198
2781,0.1203
2780.5,0.1207
2780,0.1211
2779.5,0.1213
2779,0.1214
2778.5,0.1214
2778,0.1214
2777.5,0.1212
2777,0.1209
2776.5,0.1206
2776,0.1201
2775.5,0.1196
2775,0.1189
2774.5,0.1182
2774,0.1174
2773.5,0.1165
2773,0.1156
2772.5,0.1146
2772,0.1136
2771.5,0.1126
2771,0.1116
2770.5,0.1105
2770,0.1095
2769.5,0.1084
2769,0.1073
2768.5,0.1061
2768,0.105
2767.5,0.1038
2767,0.1026
2766.5,0.1014
2766,0.1002
2765.5,0.099
2765,0.0977
2764.5,0.0965
2764,0.0952
2763.5,0.094
2763,0.0927
2762.5,0.0914
2762,0.0901
2761.5,0.0889
2761,0.0876
2760.5,0.0864
2760,0.0851
2759.5,0.0839
2759,0.0827
2758.5,0.0815
2758,0.0803
2757.5,0.0791
2757,0.078
2756.5,0.0768
2756,0.0757
2755.5,0.0746
2755,0.0736
2754.5,0.0725
2754,0.0716
2753.5,0.0706
2753,0.0697
2752.5,0.0688
2752,0.068
2751.5,0.0671
2751,0.0664
2750.5,0.0656
2750,0.065
2749.5,0.0644
2749,0.0639
2748.5,0.0635
2748,0.0631
2747.5,0.0628
2747,0.0625
2746.5,0.0622
2746,0.062
2745.5,0.0619
2745,0.0618
2744.5,0.0619
2744,0.062
2743.5,0.0622
2743,0.0624
2742.5,0.0627
2742,0.0631
2741.5,0.0635
2741,0.064
2740.5,0.0646
2740,0.0652
2739.5,0.0659
2739,0.0667
2738.5,0.0675
2738,0.0684
2737.5,0.0693
2737,0.0702
2736.5,0.0712
2736,0.0723
2735.5,0.0733
2735,0.0745
2734.5,0.0756
2734,0.0768
2733.5,0.078
2733,0.0792
2732.5,0.0805
2732,0.0817
2731.5,0.0829
2731,0.0841
2730.5,0.0853
2730,0.0865
2729.5,0.0877
2729,0.0889
2728.5,0.09
2728,0.0912
2727.5,0.0923
2727,0.0935
2726.5,0.0946
2726,0.0957
2725.5,0.0968
2725,0.0979
2724.5,0.099
2724,0.1
2723.5,0.101
2723,0.102
2722.5,0.1029
2722,0.1038
2721.5,0.1046
2721,0.1054
2720.5,0.1061
2720,0.1068
2719.5,0.1075
2719,0.108
2718.5,0.1086
2718,0.1091
2717.5,0.1095
2717,0.1099
2716.5,0.1102
2716,0.1105
2715.5,0.1107
2715,0.1109
2714.5,0.111
2714,0.1111
2713.5,0.1111
2713,0.1111
2712.5,0.111
2712,0.1109
2711.5,0.1107
2711,0.1104
2710.5,0.1101
2710,0.1097
2709.5,0.1093
2709,0.1088
2708.5,0.1084
2708,0.1079
2707.5,0.1073
2707,0.1068
2706.5,0.1061
2706,0.1054
2705.5,0.1047
2705,0.1039
2704.5,0.1031
2704,0.1023
2703.5,0.1015
2703,0.1006
2702.5,0.0998
2702,0.0989
2701.5,0.0979
2701,0.097
2700.5,0.0961
2700,0.0952
2699.5,0.0942
2699,0.0933
2698.5,0.0924
2698,0.0914
2697.5,0.0905
2697,0.0895
2696.5,0.0885
2696,0.0876
2695.5,0.0866
2695,0.0856
2694.5,0.0846
2694,0.0836
2693.5,0.0827
2693,0.0818
2692.5,0.0809
2692,0.08
2691.5,0.0792
2691,0.0783
2690.5,0.0775
2690,0.0767
2689.5,0.0759
2689,0.0751
2688.5,0.0744
2688,0.0737
2687.5,0.073
2687,0.0724
2686.5,0.0717
2686,0.0712
2685.5,0.0706
2685,0.0701
2684.5,0.0696
2684,0.0692
2683.5,0.0688
2683,0.0685
2682.5,0.0682
2682,0.0679
2681.5,0.0677
2681,0.0676
2680.5,0.0674
2680,0.0674
2679.5,0.0674
2679,0.0675
2678.5,0.0676
2678,0.0678
2677.5,0.068
2677,0.0683
2676.5,0.0686
2676,0.069
2675.5,0.0695
2675,0.07
2674.5,0.0705
2674,0.0711
2673.5,0.0717
2673,0.0724
2672.5,0.0731
2672,0.0739
2671.5,0.0746
2671,0.0754
2670.5,0.0762
2670,0.0769
2669.5,0.0778
2669,0.0786
2668.5,0.0794
2668,0.0803
2667.5,0.0811
2667,0.082
2666.5,0.0829
2666,0.0838
2665.5,0.0848
2665,0.0858
2664.5,0.0868
2664,0.0879
2663.5,0.0889
2663,0.0899
2662.5,0.0909
2662,0.0919
2661.5,0.093
2661,0.0941
2660.5,0.0951
2660,0.0961
2659.5,0.0971
2659,0.0981
2658.5,0.099
2658,0.0999
2657.5,0.1009
2657,0.1018
2656.5,0.1026
2656,0.1035
2655.5,0.1043
2655,0.105
2654.5,0.1057
2654,0.1064
2653.5,0.107
2653,0.1075
2652.5,0.108
2652,0.1085
2651.5,0.1089
2651,0.1093
2650.5,0.1096
2650,0.1099
2649.5,0.1101
2649,0.1103
2648.5,0.1104
2648,0.1105
2647.5,0.1105
2647,0.1104
2646.5,0.1103
2646,0.1102
2645.5,0.1099
2645,0.1097
2644.5,0.1094
2644,0.109
2643.5,0.1086
2643,0.1082
2642.5,0.1078
2642,0.1073
2641.5,0.1069
2641,0.1064
2640.5,0.106
2640,0.1055
2639.5,0.1051
2639,0.1047
2638.5,0.1043
2638,0.104
2637.5,0.1037
2637,0.1034
2636.5,0.1032
2636,0.103
2635.5,0.1028
2635,0.1026
2634.5,0.1024
2634,0.1021
2633.5,0.1017
2633,0.1013
2632.5,0.1007
2632,0.0999
2631.5,0.099
2631,0.0979
2630.5,0.0966
2630,0.0952
2629.5,0.0936
2629,0.0919
2628.5,0.0901
2628,0.0882
2627.5,0.0863
2627,0.0845
2626.5,0.0827
2626,0.081
2625.5,0.0793
2625,0.0776
2624.5,0.0761
2624,0.0746
2623.5,0.0732
2623,0.0718
2622.5,0.0706
2622,0.0695
2621.5,0.0685
2621,0.0675
2620.5,0.0666
2620,0.0657
2619.5,0.0649
2619,0.0642
2618.5,0.0636
2618,0.0631
2617.5,0.0626
2617,0.0623
2616.5,0.0621
2616,0.062
2615.5,0.0619
2615,0.062
2614.5,0.0622
2614,0.0625
2613.5,0.0629
2613,0.0633
2612.5,0.0639
2612,0.0646
2611.5,0.0654
2611,0.0663
2610.5,0.0672
2610,0.0683
2609.5,0.0695
2609,0.0708
2608.5,0.0721
2608,0.0735
2607.5,0.0749
2607,0.0764
2606.5,0.0778
2606,0.0792
2605.5,0.0806
2605,0.0819
2604.5,0.0831
2604,0.0843
2603.5,0.0853
2603,0.0863
2602.5,0.0871
2602,0.0879
2601.5,0.0885
2601,0.0891
2600.5,0.0895
2600,0.0899
2599.5,0.0902
2599,0.0905
2598.5,0.0908
2598,0.0911
2597.5,0.0914
2597,0.0917
2596.5,0.092
2596,0.0923
2595.5,0.0926
2595,0.093
2594.5,0.0934
2594,0.0939
2593.5,0.0944
2593,0.095
2592.5,0.0956
2592,0.0963
2591.5,0.097
2591,0.0977
2590.5,0.0985
2590,0.0992
2589.5,0.1
2589,0.1007
2588.5,0.1016
2588,0.1024
2587.5,0.1033
2587,0.1042
2586.5,0.1051
2586,0.106
2585.5,0.1069
2585,0.1077
2584.5,0.1086
2584,0.1094
2583.5,0.1101
2583,0.1108
2582.5,0.1113
2582,0.1117
2581.5,0.1119
2581,0.1119
2580.5,0.1116
2580,0.1111
2579.5,0.1105
2579,0.1097
2578.5,0.1087
2578,0.1076
2577.5,0.1065
2577,0.1054
2576.5,0.1042
2576,0.103
2575.5,0.1019
2575,0.1007
2574.5,0.0995
2574,0.0984
2573.5,0.0973
2573,0.0961
2572.5,0.095
2572,0.094
2571.5,0.0929
2571,0.0918
2570.5,0.0908
2570,0.0897
2569.5,0.0886
2569,0.0875
2568.5,0.0864
2568,0.0854
2567.5,0.0844
2567,0.0833
2566.5,0.0823
2566,0.0812
2565.5,0.0802
2565,0.0791
2564.5,0.078
2564,0.0769
2563.5,0.0759
2563,0.0748
2562.5,0.0738
2562,0.0727
2561.5,0.0717
2561,0.0708
2560.5,0.0698
2560,0.0688
2559.5,0.0679
2559,0.067
2558.5,0.0661
2558,0.0652
2557.5,0.0644
2557,0.0636
2556.5,0.0628
2556,0.0622
2555.5,0.0616
2555,0.061
2554.5,0.0606
2554,0.0602
2553.5,0.0598
2553,0.0595
2552.5,0.0592
2552,0.059
2551.5,0.0589
2551,0.0588
2550.5,0.0588
2550,0.0589
2549.5,0.059
2549,0.0591
2548.5,0.0592
2548,0.0594
2547.5,0.0596
2547,0.0598
2546.5,0.06
2546,0.0603
2545.5,0.0605
2545,0.0608
2544.5,0.061
2544,0.0613
2543.5,0.0616
2543,0.0619
2542.5,0.0623
2542,0.0627
2541.5,0.0631
2541,0.0636
2540.5,0.0642
2540,0.0648
2539.5,0.0655
2539,0.0662
2538.5,0.067
2538,0.0678
2537.5,0.0686
2537,0.0695
2536.5,0.0704
2536,0.0713
2535.5,0.0723
2535,0.0733
2534.5,0.0744
2534,0.0755
2533.5,0.0766
2533,0.0777
2532.5,0.0789
2532,0.08
2531.5,0.0812
2531,0.0824
2530.5,0.0835
2530,0.0847
2529.5,0.0858
2529,0.087
2528.5,0.0881
2528,0.0892
2527.5,0.0903
2527,0.0913
2526.5,0.0924
2526,0.0934
2525.5,0.0944
2525,0.0954
2524.5,0.0963
2524,0.0972
2523.5,0.0981
2523,0.0989
2522.5,0.0997
2522,0.1004
2521.5,0.1011
2521,0.1017
2520.5,0.1022
2520,0.1027
2519.5,0.1032
2519,0.1036
2518.5,0.1039
2518,0.1042
2517.5,0.1044
2517,0.1046
2516.5,0.1047
2516,0.1048
2515.5,0.1048
2515,0.1048
2514.5,0.1047
2514,0.1046
2513.5,0.1044
2513,0.1042
2512.5,0.1039
2512,0.1036
2511.5,0.1032
2511,0.1027
2510.5,0.1022
2510,0.1017
2509.5,0.1011
2509,0.1004
2508.5,0.0996
2508,0.0988
2507.5,0.0979
2507,0.097
2506.5,0.096
2506,0.095
2505.5,0.094
2505,0.0929
2504.5,0.0918
2504,0.0906
2503.5,0.0894
2503,0.0882
2502.5,0.087
2502,0.0857
2501.5,0.0845
2501,0.0832
2500.5,0.0819
2500,0.0805
2499.5,0.0793
2499,0.078
2498.5,0.0768
2498,0.0756
2497.5,0.0745
2497,0.0733
2496.5,0.0722
2496,0.071
2495.5,0.0699
2495,0.0688
2494.5,0.0677
2494,0.0667
2493.5,0.0657
2493,0.0647
2492.5,0.0637
2492,0.0627
2491.5,0.0618
2491,0.0609
2490.5,0.06
2490,0.0591
2489.5,0.0582
2489,0.0574
2488.5,0.0566
2488,0.0559
2487.5,0.0552
2487,0.0546
2486.5,0.0541
2486,0.0536
2485.5,0.0532
2485,0.0528
2484.5,0.0524
2484,0.0521
2483.5,0.0518
2483,0.0515
2482.5,0.0513
2482,0.0511
2481.5,0.051
2481,0.051
2480.5,0.051
2480,0.051
2479.5,0.0511
2479,0.0512
2478.5,0.0513
2478,0.0515
2477.5,0.0517
2477,0.052
2476.5,0.0523
2476,0.0527
2475.5,0.0531
2475,0.0536
2474.5,0.0541
2474,0.0547
2473.5,0.0554
2473,0.0561
2472.5,0.0568
2472,0.0575
2471.5,0.0583
2471,0.0591
2470.5,0.0599
2470,0.0608
2469.5,0.0617
2469,0.0627
2468.5,0.0636
2468,0.0646
2467.5,0.0656
2467,0.0666
2466.5,0.0676
2466,0.0686
2465.5,0.0697
2465,0.0708
2464.5,0.0719
2464,0.0729
2463.5,0.074
2463,0.0751
2462.5,0.0761
2462,0.0772
2461.5,0.0782
2461,0.0792
2460.5,0.0802
2460,0.0812
2459.5,0.0822
2459,0.0831
2458.5,0.084
2458,0.0849
2457.5,0.0857
2457,0.0865
2456.5,0.0872
2456,0.088
2455.5,0.0887
2455,0.0894
2454.5,0.09
2454,0.0905
2453.5,0.091
2453,0.0914
2452.5,0.0918
2452,0.092
2451.5,0.0922
2451,0.0923
2450.5,0.0924
2450,0.0924
2449.5,0.0923
2449,0.0922
2448.5,0.0921
2448,0.0918
2447.5,0.0916
2447,0.0912
2446.5,0.0908
2446,0.0904
2445.5,0.0899
2445,0.0894
2444.5,0.0888
2444,0.0882
2443.5,0.0875
2443,0.0868
2442.5,0.0861
2442,0.0853
2441.5,0.0844
2441,0.0835
2440.5,0.0826
2440,0.0816
2439.5,0.0806
2439,0.0796
2438.5,0.0785
2438,0.0774
2437.5,0.0763
2437,0.0752
2436.5,0.0741
2436,0.0729
2435.5,0.0717
2435,0.0705
2434.5,0.0693
2434,0.0681
2433.5,0.0669
2433,0.0656
2432.5,0.0644
2432,0.0631
2431.5,0.0618
2431,0.0606
2430.5,0.0593
2430,0.0581
2429.5,0.0569
2429,0.0557
2428.5,0.0546
2428,0.0534
2427.5,0.0523
2427,0.0512
2426.5,0.0502
2426,0.0492
2425.5,0.0482
2425,0.0473
2424.5,0.0464
2424,0.0455
2423.5,0.0447
2423,0.044
2422.5,0.0432
2422,0.0426
2421.5,0.042
2421,0.0414
2420.5,0.041
2420,0.0406
2419.5,0.0403
2419,0.04
2418.5,0.0397
2418,0.0395
2417.5,0.0394
2417,0.0393
2416.5,0.0393
2416,0.0393
2415.5,0.0395
2415,0.0397
2414.5,0.0399
2414,0.0401
2413.5,0.0405
2413,0.0409
2412.5,0.0413
2412,0.0419
2411.5,0.0425
2411,0.0432
2410.5,0.0439
2410,0.0447
2409.5,0.0455
2409,0.0463
2408.5,0.0472
2408,0.0481
2407.5,0.0491
2407,0.0501
2406.5,0.0511
2406,0.0522
2405.5,0.0533
2405,0.0545
2404.5,0.0556
2404,0.0568
2403.5,0.058
2403,0.0593
2402.5,0.0605
2402,0.0618
2401.5,0.063
2401,0.0642
2400.5,0.0655
2400,0.0667
2399.5,0.0679
2399,0.0692
2398.5,0.0704
2398,0.0717
2397.5,0.0729
2397,0.0741
2396.5,0.0752
2396,0.0764
2395.5,0.0775
2395,0.0786
2394.5,0.0796
2394,0.0807
2393.5,0.0817
2393,0.0826
2392.5,0.0836
2392,0.0845
2391.5,0.0853
2391,0.086
2390.5,0.0867
2390,0.0874
2389.5,0.088
2389,0.0886
2388.5,0.0891
2388,0.0896
2387.5,0.09
2387,0.0904
2386.5,0.0907
2386,0.091
2385.5,0.0914
2385,0.0918
2384.5,0.0921
2384,0.0925
2383.5,0.0929
2383,0.0933
2382.5,0.0938
2382,0.0943
2381.5,0.0949
2381,0.0954
2380.5,0.0959
2380,0.0964
2379.5,0.0969
2379,0.0973
2378.5,0.0977
2378,0.0978
2377.5,0.0981
2377,0.0976
2376.5,0.098
2376,0.0963
2375.5,0.0983
2375,0.0882
2374.5,0.0797
2374,0.0811
2373.5,0.0787
2373,0.0783
2372.5,0.0768
2372,0.0758
2371.5,0.0746
2371,0.0734
2370.5,0.0723
2370,0.0711
2369.5,0.07
2369,0.069
2368.5,0.0679
2368,0.0669
2367.5,0.0659
2367,0.0648
2366.5,0.0638
2366,0.0629
2365.5,0.0619
2365,0.061
2364.5,0.0601
2364,0.0593
2363.5,0.0584
2363,0.0575
2362.5,0.0567
2362,0.0558
2361.5,0.055
2361,0.0542
2360.5,0.0534
2360,0.0525
2359.5,0.0517
2359,0.0509
2358.5,0.0501
2358,0.0493
2357.5,0.0486
2357,0.0479
2356.5,0.0473
2356,0.0468
2355.5,0.0463
2355,0.0459
2354.5,0.0456
2354,0.0454
2353.5,0.0453
2353,0.0453
2352.5,0.0454
2352,0.0456
2351.5,0.0459
2351,0.0463
2350.5,0.0468
2350,0.0474
2349.5,0.0479
2349,0.0484
2348.5,0.0488
2348,0.0492
2347.5,0.0497
2347,0.0502
2346.5,0.0509
2346,0.0517
2345.5,0.0527
2345,0.0539
2344.5,0.0553
2344,0.0568
2343.5,0.0586
2343,0.0604
2342.5,0.0624
2342,0.0645
2341.5,0.0666
2341,0.0688
2340.5,0.071
2340,0.0732
2339.5,0.0754
2339,0.0774
2338.5,0.0793
2338,0.0809
2337.5,0.0823
2337,0.0833
2336.5,0.0842
2336,0.0847
2335.5,0.085
2335,0.0851
2334.5,0.0849
2334,0.0845
2333.5,0.0841
2333,0.0835
2332.5,0.083
2332,0.0825
2331.5,0.0821
2331,0.0818
2330.5,0.0816
2330,0.0814
2329.5,0.0814
2329,0.0814
2328.5,0.0816
2328,0.0818
2327.5,0.0821
2327,0.0826
2326.5,0.083
2326,0.0836
2325.5,0.0842
2325,0.0848
2324.5,0.0855
2324,0.0862
2323.5,0.087
2323,0.0877
2322.5,0.0886
2322,0.0894
2321.5,0.0902
2321,0.091
2320.5,0.0919
2320,0.0928
2319.5,0.0937
2319,0.0946
2318.5,0.0955
2318,0.0965
2317.5,0.0974
2317,0.0983
2316.5,0.0992
2316,0.1001
2315.5,0.1009
2315,0.1017
2314.5,0.1023
2314,0.1027
2313.5,0.1031
2313,0.1033
2312.5,0.1033
2312,0.1031
2311.5,0.1028
2311,0.1023
2310.5,0.1015
2310,0.1004
2309.5,0.0992
2309,0.0978
2308.5,0.0963
2308,0.0945
2307.5,0.0927
2307,0.0908
2306.5,0.0889
2306,0.087
2305.5,0.0851
2305,0.0832
2304.5,0.0813
2304,0.0795
2303.5,0.0777
2303,0.0761
2302.5,0.0744
2302,0.0729
2301.5,0.0714
2301,0.07
2300.5,0.0685
2300,0.0672
2299.5,0.0659
2299,0.0647
2298.5,0.0635
2298,0.0624
2297.5,0.0613
2297,0.0602
2296.5,0.0592
2296,0.0581
2295.5,0.057
2295,0.056
2294.5,0.055
2294,0.054
2293.5,0.053
2293,0.052
2292.5,0.0511
2292,0.0501
2291.5,0.0492
2291,0.0482
2290.5,0.0473
2290,0.0463
2289.5,0.0454
2289,0.0444
2288.5,0.0441
2288,0.0436
2287.5,0.0425
2287,0.0418
2286.5,0.041
2286,0.0402
2285.5,0.0395
2285,0.039
2284.5,0.0387
2284,0.0384
2283.5,0.0382
2283,0.0381
2282.5,0.0382
2282,0.0383
2281.5,0.0386
2281,0.0388
2280.5,0.0391
2280,0.0396
2279.5,0.0401
2279,0.0406
2278.5,0.0412
2278,0.0419
2277.5,0.0426
2277,0.0433
2276.5,0.0442
2276,0.045
2275.5,0.0459
2275,0.0469
2274.5,0.0479
2274,0.0489
2273.5,0.05
2273,0.0511
2272.5,0.0523
2272,0.0535
2271.5,0.0547
2271,0.056
2270.5,0.0572
2270,0.0585
2269.5,0.0598
2269,0.0611
2268.5,0.0624
2268,0.0637
2267.5,0.0651
2267,0.0665
2266.5,0.0678
2266,0.0692
2265.5,0.0706
2265,0.0719
2264.5,0.0732
2264,0.0745
2263.5,0.0758
2263,0.0771
2262.5,0.0784
2262,0.0796
2261.5,0.0808
2261,0.0819
2260.5,0.083
2260,0.0841
2259.5,0.0851
2259,0.0861
2258.5,0.087
2258,0.0879
2257.5,0.0888
2257,0.0895
2256.5,0.0902
2256,0.0908
2255.5,0.0915
2255,0.092
2254.5,0.0924
2254,0.0928
2253.5,0.0931
2253,0.0933
2252.5,0.0934
2252,0.0935
2251.5,0.0935
2251,0.0935
2250.5,0.0933
2250,0.0931
2249.5,0.0928
2249,0.0925
2248.5,0.092
2248,0.0916
2247.5,0.0911
2247,0.0905
2246.5,0.0898
2246,0.0892
2245.5,0.0885
2245,0.0877
2244.5,0.0868
2244,0.0859
2243.5,0.085
2243,0.0841
2242.5,0.0831
2242,0.0821
2241.5,0.081
2241,0.0799
2240.5,0.0788
2240,0.0776
2239.5,0.0764
2239,0.0752
2238.5,0.074
2238,0.0728
2237.5,0.0716
2237,0.0704
2236.5,0.0691
2236,0.0679
2235.5,0.0666
2235,0.0653
2234.5,0.064
2234,0.0627
2233.5,0.0614
2233,0.0601
2232.5,0.0588
2232,0.0575
2231.5,0.0563
2231,0.055
2230.5,0.0538
2230,0.0526
2229.5,0.0514
2229,0.0501
2228.5,0.0489
2228,0.0478
2227.5,0.0466
2227,0.0455
2226.5,0.0445
2226,0.0434
2225.5,0.0424
2225,0.0415
2224.5,0.0405
2224,0.0396
2223.5,0.0388
2223,0.038
2222.5,0.0372
2222,0.0365
2221.5,0.0359
2221,0.0354
2220.5,0.0349
2220,0.0344
2219.5,0.0341
2219,0.0338
2218.5,0.0335
2218,0.0334
2217.5,0.0332
2217,0.0332
2216.5,0.0332
2216,0.0333
2215.5,0.0335
2215,0.0337
2214.5,0.034
2214,0.0344
2213.5,0.0348
2213,0.0353
2212.5,0.0358
2212,0.0364
2211.5,0.037
2211,0.0376
2210.5,0.0383
2210,0.039
2209.5,0.0397
2209,0.0404
2208.5,0.0412
2208,0.0421
2207.5,0.0429
2207,0.0438
2206.5,0.0447
2206,0.0456
2205.5,0.0466
2205,0.0476
2204.5,0.0487
2204,0.0498
2203.5,0.0509
2203,0.052
2202.5,0.0532
2202,0.0543
2201.5,0.0555
2201,0.0567
2200.5,0.058
2200,0.0593
2199.5,0.0605
2199,0.0618
2198.5,0.0631
2198,0.0644
2197.5,0.0657
2197,0.067
2196.5,0.0683
2196,0.0696
2195.5,0.0708
2195,0.0721
2194.5,0.0733
2194,0.0744
2193.5,0.0755
2193,0.0766
2192.5,0.0776
2192,0.0786
2191.5,0.0796
2191,0.0805
2190.5,0.0814
2190,0.0822
2189.5,0.083
2189,0.0837
2188.5,0.0844
2188,0.085
2187.5,0.0856
2187,0.0861
2186.5,0.0866
2186,0.0869
2185.5,0.0871
2185,0.0873
2184.5,0.0874
2184,0.0874
2183.5,0.0873
2183,0.0872
2182.5,0.0869
2182,0.0866
2181.5,0.0862
2181,0.0857
2180.5,0.0851
2180,0.0845
2179.5,0.0839
2179,0.0831
2178.5,0.0823
2178,0.0815
2177.5,0.0806
2177,0.0797
2176.5,0.0788
2176,0.0778
2175.5,0.0767
2175,0.0757
2174.5,0.0746
2174,0.0735
2173.5,0.0723
2173,0.0711
2172.5,0.0699
2172,0.0687
2171.5,0.0675
2171,0.0662
2170.5,0.0649
2170,0.0636
2169.5,0.0623
2169,0.061
2168.5,0.0597
2168,0.0583
2167.5,0.057
2167,0.0556
2166.5,0.0543
2166,0.053
2165.5,0.0517
2165,0.0505
2164.5,0.0492
2164,0.0479
2163.5,0.0466
2163,0.0454
2162.5,0.0441
2162,0.043
2161.5,0.0419
2161,0.0408
2160.5,0.0397
2160,0.0387
2159.5,0.0377
2159,0.0367
2158.5,0.0358
2158,0.035
2157.5,0.0341
2157,0.0334
2156.5,0.0327
2156,0.032
2155.5,0.0313
2155,0.0307
2154.5,0.0302
2154,0.0297
2153.5,0.0293
2153,0.0289
2152.5,0.0287
2152,0.0284
2151.5,0.0283
2151,0.0282
2150.5,0.0281
2150,0.0281
2149.5,0.0281
2149,0.0282
2148.5,0.0284
2148,0.0287
2147.5,0.029
2147,0.0293
2146.5,0.0298
2146,0.0303
2145.5,0.0308
2145,0.0314
2144.5,0.0321
2144,0.0328
2143.5,0.0335
2143,0.0342
2142.5,0.0351
2142,0.0359
2141.5,0.0369
2141,0.0378
2140.5,0.0388
2140,0.0399
2139.5,0.0409
2139,0.042
2138.5,0.0431
2138,0.0443
2137.5,0.0455
2137,0.0467
2136.5,0.0479
2136,0.0491
2135.5,0.0504
2135,0.0517
2134.5,0.053
2134,0.0543
2133.5,0.0556
2133,0.0569
2132.5,0.0581
2132,0.0594
2131.5,0.0607
2131,0.0619
2130.5,0.0631
2130,0.0643
2129.5,0.0655
2129,0.0667
2128.5,0.0679
2128,0.069
2127.5,0.0701
2127,0.0711
2126.5,0.0721
2126,0.0731
2125.5,0.074
2125,0.0749
2124.5,0.0758
2124,0.0766
2123.5,0.0773
2123,0.0779
2122.5,0.0785
2122,0.0791
2121.5,0.0797
2121,0.0802
2120.5,0.0806
2120,0.081
2119.5,0.0813
2119,0.0815
2118.5,0.0817
2118,0.0817
2117.5,0.0817
2117,0.0817
2116.5,0.0816
2116,0.0814
2115.5,0.0812
2115,0.0809
2114.5,0.0806
2114,0.0801
2113.5,0.0796
2113,0.0791
2112.5,0.0785
2112,0.0778
2111.5,0.0771
2111,0.0763
2110.5,0.0755
2110,0.0746
2109.5,0.0737
2109,0.0727
2108.5,0.0717
2108,0.0707
2107.5,0.0696
2107,0.0685
2106.5,0.0673
2106,0.0661
2105.5,0.0649
2105,0.0636
2104.5,0.0623
2104,0.061
2103.5,0.0597
2103,0.0584
2102.5,0.057
2102,0.0557
2101.5,0.0543
2101,0.053
2100.5,0.0516
2100,0.0503
2099.5,0.0489
2099,0.0475
2098.5,0.0462
2098,0.0449
2097.5,0.0436
2097,0.0423
2096.5,0.041
2096,0.0398
2095.5,0.0386
2095,0.0374
2094.5,0.0362
2094,0.0351
2093.5,0.0341
2093,0.033
2092.5,0.0321
2092,0.0311
2091.5,0.0302
2091,0.0293
2090.5,0.0285
2090,0.0277
2089.5,0.027
2089,0.0264
2088.5,0.0258
2088,0.0253
2087.5,0.0248
2087,0.0244
2086.5,0.0241
2086,0.0239
2085.5,0.0237
2085,0.0235
2084.5,0.0234
2084,0.0234
2083.5,0.0235
2083,0.0237
2082.5,0.0239
2082,0.0241
2081.5,0.0245
2081,0.0249
2080.5,0.0253
2080,0.0259
2079.5,0.0265
2079,0.0272
2078.5,0.0279
2078,0.0287
2077.5,0.0295
2077,0.0304
2076.5,0.0313
2076,0.0323
2075.5,0.0333
2075,0.0344
2074.5,0.0355
2074,0.0366
2073.5,0.0378
2073,0.039
2072.5,0.0402
2072,0.0415
2071.5,0.0428
2071,0.0441
2070.5,0.0454
2070,0.0468
2069.5,0.0482
2069,0.0495
2068.5,0.0509
2068,0.0523
2067.5,0.0536
2067,0.055
2066.5,0.0563
2066,0.0577
2065.5,0.059
2065,0.0603
2064.5,0.0616
2064,0.0629
2063.5,0.0642
2063,0.0654
2062.5,0.0666
2062,0.0678
2061.5,0.0689
2061,0.07
2060.5,0.071
2060,0.072
2059.5,0.073
2059,0.0739
2058.5,0.0748
2058,0.0756
2057.5,0.0764
2057,0.0771
2056.5,0.0777
2056,0.0783
2055.5,0.0789
2055,0.0793
2054.5,0.0797
2054,0.0801
2053.5,0.0804
2053,0.0806
2052.5,0.0808
2052,0.0809
2051.5,0.0809
2051,0.0809
2050.5,0.0808
2050,0.0806
2049.5,0.0804
2049,0.0801
2048.5,0.0798
2048,0.0795
2047.5,0.079
2047,0.0785
2046.5,0.0779
2046,0.0773
2045.5,0.0766
2045,0.0759
2044.5,0.0751
2044,0.0743
2043.5,0.0734
2043,0.0725
2042.5,0.0716
2042,0.0705
2041.5,0.0695
2041,0.0684
2040.5,0.0673
2040,0.0662
2039.5,0.0651
2039,0.0639
2038.5,0.0627
2038,0.0615
2037.5,0.0603
2037,0.0591
2036.5,0.0579
2036,0.0566
2035.5,0.0554
2035,0.0542
2034.5,0.0529
2034,0.0516
2033.5,0.0504
2033,0.0491
2032.5,0.0479
2032,0.0466
2031.5,0.0454
2031,0.0442
2030.5,0.043
2030,0.0418
2029.5,0.0406
2029,0.0395
2028.5,0.0384
2028,0.0373
2027.5,0.0362
2027,0.0352
2026.5,0.0342
2026,0.0333
2025.5,0.0324
2025,0.0316
2024.5,0.0308
2024,0.03
2023.5,0.0293
2023,0.0288
2022.5,0.0282
2022,0.0277
2021.5,0.0273
2021,0.027
2020.5,0.0268
2020,0.0266
2019.5,0.0264
2019,0.0264
2018.5,0.0265
2018,0.0267
2017.5,0.0268
2017,0.027
2016.5,0.0273
2016,0.0277
2015.5,0.0283
2015,0.0289
2014.5,0.0296
2014,0.0303
2013.5,0.0311
2013,0.0319
2012.5,0.0328
2012,0.0338
2011.5,0.0349
2011,0.0359
2010.5,0.037
2010,0.0381
2009.5,0.0393
2009,0.0404
2008.5,0.0417
2008,0.0429
2007.5,0.0442
2007,0.0456
2006.5,0.0469
2006,0.0483
2005.5,0.0496
2005,0.051
2004.5,0.0524
2004,0.0539
2003.5,0.0553
2003,0.0568
2002.5,0.0583
2002,0.0597
2001.5,0.0612
2001,0.0628
2000.5,0.0643
2000,0.0659
1999.5,0.0675
1999,0.0691
1998.5,0.0706
1998,0.0722
1997.5,0.0738
1997,0.0754
1996.5,0.0771
1996,0.0788
1995.5,0.0804
1995,0.082
1994.5,0.0835
1994,0.0852
1993.5,0.0869
1993,0.0884
1992.5,0.0898
1992,0.0912
1991.5,0.0926
1991,0.0941
1990.5,0.0956
1990,0.0971
1989.5,0.0984
1989,0.0997
1988.5,0.1008
1988,0.1019
1987.5,0.1028
1987,0.1036
1986.5,0.1042
1986,0.1047
1985.5,0.105
1985,0.1051
1984.5,0.1051
1984,0.1049
1983.5,0.1046
1983,0.1041
1982.5,0.1036
1982,0.1031
1981.5,0.1025
1981,0.1018
1980.5,0.1012
1980,0.1004
1979.5,0.0997
1979,0.099
1978.5,0.0982
1978,0.0976
1977.5,0.0969
1977,0.0962
1976.5,0.0956
1976,0.0951
1975.5,0.0947
1975,0.0945
1974.5,0.0944
1974,0.0944
1973.5,0.0946
1973,0.095
1972.5,0.0956
1972,0.0965
1971.5,0.0976
1971,0.0988
1970.5,0.1002
1970,0.1017
1969.5,0.1035
1969,0.1054
1968.5,0.1075
1968,0.1096
1967.5,0.1118
1967,0.1142
1966.5,0.1167
1966,0.1192
1965.5,0.1218
1965,0.1244
1964.5,0.127
1964,0.1295
1963.5,0.1319
1963,0.1343
1962.5,0.1365
1962,0.1387
1961.5,0.1408
1961,0.1427
1960.5,0.1446
1960,0.1464
1959.5,0.1481
1959,0.1497
1958.5,0.1512
1958,0.1526
1957.5,0.1541
1957,0.1555
1956.5,0.157
1956,0.1586
1955.5,0.1603
1955,0.1622
1954.5,0.1642
1954,0.1664
1953.5,0.1687
1953,0.1714
1952.5,0.1742
1952,0.1773
1951.5,0.1807
1951,0.1843
1950.5,0.1882
1950,0.1923
1949.5,0.1965
1949,0.2009
1948.5,0.2053
1948,0.2098
1947.5,0.2144
1947,0.2188
1946.5,0.223
1946,0.2268
1945.5,0.2301
1945,0.2331
1944.5,0.2356
1944,0.2376
1943.5,0.2387
1943,0.239
1942.5,0.2385
1942,0.2374
1941.5,0.2357
1941,0.2333
1940.5,0.2303
1940,0.2267
1939.5,0.2224
1939,0.2176
1938.5,0.2123
1938,0.2067
1937.5,0.2008
1937,0.1948
1936.5,0.1888
1936,0.1828
1935.5,0.1769
1935,0.1712
1934.5,0.1656
1934,0.1604
1933.5,0.1555
1933,0.1509
1932.5,0.1468
1932,0.143
1931.5,0.1395
1931,0.1365
1930.5,0.1337
1930,0.1313
1929.5,0.1293
1929,0.1274
1928.5,0.1258
1928,0.1245
1927.5,0.1234
1927,0.1224
1926.5,0.1215
1926,0.1207
1925.5,0.1199
1925,0.1192
1924.5,0.1186
1924,0.118
1923.5,0.1172
1923,0.1165
1922.5,0.116
1922,0.1156
1921.5,0.115
1921,0.1143
1920.5,0.1136
1920,0.113
1919.5,0.1124
1919,0.1115
1918.5,0.1104
1918,0.1092
1917.5,0.1084
1917,0.1077
1916.5,0.107
1916,0.1062
1915.5,0.1054
1915,0.1047
1914.5,0.1039
1914,0.1031
1913.5,0.1023
1913,0.1013
1912.5,0.1004
1912,0.0996
1911.5,0.0988
1911,0.0979
1910.5,0.0969
1910,0.096
1909.5,0.0951
1909,0.0943
1908.5,0.0934
1908,0.0925
1907.5,0.0917
1907,0.0909
1906.5,0.0901
1906,0.0893
1905.5,0.0886
1905,0.0879
1904.5,0.0873
1904,0.0868
1903.5,0.0863
1903,0.0858
1902.5,0.0854
1902,0.0852
1901.5,0.085
1901,0.085
1900.5,0.0852
1900,0.0854
1899.5,0.0859
1899,0.0864
1898.5,0.087
1898,0.0877
1897.5,0.0887
1897,0.0899
1896.5,0.0912
1896,0.0926
1895.5,0.0942
1895,0.0959
1894.5,0.0978
1894,0.0999
1893.5,0.1022
1893,0.1045
1892.5,0.1068
1892,0.1092
1891.5,0.1118
1891,0.1144
1890.5,0.1168
1890,0.1191
1889.5,0.1214
1889,0.1239
1888.5,0.1265
1888,0.129
1887.5,0.1315
1887,0.1338
1886.5,0.1361
1886,0.1384
1885.5,0.1405
1885,0.1426
1884.5,0.1446
1884,0.1465
1883.5,0.1484
1883,0.1501
1882.5,0.1519
1882,0.1536
1881.5,0.1554
1881,0.1571
1880.5,0.1588
1880,0.1605
1879.5,0.1623
1879,0.1641
1878.5,0.1659
1878,0.1678
1877.5,0.1698
1877,0.1718
1876.5,0.1738
1876,0.1759
1875.5,0.1781
1875,0.1802
1874.5,0.1824
1874,0.1846
1873.5,0.1868
1873,0.1889
1872.5,0.1908
1872,0.1923
1871.5,0.1937
1871,0.1949
1870.5,0.1957
1870,0.196
1869.5,0.1958
1869,0.1953
1868.5,0.1947
1868,0.1939
1867.5,0.1927
1867,0.1912
1866.5,0.1894
1866,0.1873
1865.5,0.1849
1865,0.1822
1864.5,0.1792
1864,0.176
1863.5,0.1727
1863,0.1693
1862.5,0.1658
1862,0.1622
1861.5,0.1586
1861,0.1551
1860.5,0.1516
1860,0.1482
1859.5,0.145
1859,0.1419
1858.5,0.1389
1858,0.1361
1857.5,0.1335
1857,0.131
1856.5,0.1287
1856,0.1266
1855.5,0.1247
1855,0.1228
1854.5,0.1211
1854,0.1195
1853.5,0.118
1853,0.1166
1852.5,0.1153
1852,0.1141
1851.5,0.113
1851,0.1118
1850.5,0.1106
1850,0.1096
1849.5,0.1086
1849,0.1077
1848.5,0.107
1848,0.1063
1847.5,0.1052
1847,0.1039
1846.5,0.1029
1846,0.1021
1845.5,0.1011
1845,0.0994
1844.5,0.0975
1844,0.0958
1843.5,0.0947
1843,0.0937
1842.5,0.0926
1842,0.0915
1841.5,0.0904
1841,0.0893
1840.5,0.0881
1840,0.0869
1839.5,0.0858
1839,0.0847
1838.5,0.0836
1838,0.0825
1837.5,0.0814
1837,0.0804
1836.5,0.0795
1836,0.0786
1835.5,0.0778
1835,0.0772
1834.5,0.0768
1834,0.0766
1833.5,0.0763
1833,0.0759
1832.5,0.0755
1832,0.0753
1831.5,0.0754
1831,0.0754
1830.5,0.0752
1830,0.0753
1829.5,0.0759
1829,0.0768
1828.5,0.0778
1828,0.0787
1827.5,0.0798
1827,0.081
1826.5,0.0822
1826,0.0832
1825.5,0.0841
1825,0.0853
1824.5,0.087
1824,0.0889
1823.5,0.0909
1823,0.0929
1822.5,0.0949
1822,0.097
1821.5,0.0993
1821,0.1016
1820.5,0.1039
1820,0.1064
1819.5,0.1089
1819,0.1114
1818.5,0.114
1818,0.1166
1817.5,0.1192
1817,0.122
1816.5,0.1249
1816,0.1279
1815.5,0.1309
1815,0.1341
1814.5,0.1373
1814,0.1405
1813.5,0.1437
1813,0.1469
1812.5,0.1503
1812,0.1538
1811.5,0.1572
1811,0.1606
1810.5,0.1639
1810,0.1674
1809.5,0.1711
1809,0.1747
1808.5,0.1782
1808,0.1816
1807.5,0.1849
1807,0.1883
1806.5,0.1915
1806,0.1946
1805.5,0.1974
1805,0.2
1804.5,0.2022
1804,0.2043
1803.5,0.2059
1803,0.2069
1802.5,0.2072
1802,0.2071
1801.5,0.2069
1801,0.2064
1800.5,0.2054
1800,0.2037
1799.5,0.2016
1799,0.1992
1798.5,0.1965
1798,0.1937
1797.5,0.1907
1797,0.1875
1796.5,0.1841
1796,0.1802
1795.5,0.176
1795,0.1721
1794.5,0.1687
1794,0.1652
1793.5,0.1611
1793,0.1565
1792.5,0.1521
1792,0.1482
1791.5,0.1447
1791,0.1415
1790.5,0.1387
1790,0.1362
1789.5,0.134
1789,0.1321
1788.5,0.1304
1788,0.1288
1787.5,0.1272
1787,0.1259
1786.5,0.1247
1786,0.1234
1785.5,0.1222
1785,0.1211
1784.5,0.1203
1784,0.1198
1783.5,0.1194
1783,0.119
1782.5,0.1188
1782,0.1187
1781.5,0.1184
1781,0.1181
1780.5,0.118
1780,0.1181
1779.5,0.1183
1779,0.1185
1778.5,0.1185
1778,0.1185
1777.5,0.1185
1777,0.1187
1776.5,0.1186
1776,0.1179
1775.5,0.1167
1775,0.1156
1774.5,0.1149
1774,0.1141
1773.5,0.1126
1773,0.1107
1772.5,0.1088
1772,0.1071
1771.5,0.1054
1771,0.1036
1770.5,0.1019
1770,0.1005
1769.5,0.0991
1769,0.0973
1768.5,0.0954
1768,0.0938
1767.5,0.0927
1767,0.092
1766.5,0.0916
1766,0.0914
1765.5,0.0915
1765,0.0914
1764.5,0.0913
1764,0.0913
1763.5,0.0917
1763,0.0921
1762.5,0.0922
1762,0.0923
1761.5,0.093
1761,0.0944
1760.5,0.0963
1760,0.0981
1759.5,0.0998
1759,0.1017
1758.5,0.1037
1758,0.1057
1757.5,0.1075
1757,0.1094
1756.5,0.1116
1756,0.1143
1755.5,0.1174
1755,0.1205
1754.5,0.1234
1754,0.1259
1753.5,0.1287
1753,0.1318
1752.5,0.1347
1752,0.1369
1751.5,0.1386
1751,0.1404
1750.5,0.1426
1750,0.1448
1749.5,0.1467
1749,0.1482
1748.5,0.1496
1748,0.1509
1747.5,0.1521
1747,0.1531
1746.5,0.1538
1746,0.1543
1745.5,0.1545
1745,0.1547
1744.5,0.1547
1744,0.1545
1743.5,0.154
1743,0.1531
1742.5,0.152
1742,0.1511
1741.5,0.1504
1741,0.1494
1740.5,0.1476
1740,0.1454
1739.5,0.1434
1739,0.1422
1738.5,0.1414
1738,0.1407
1737.5,0.1397
1737,0.1384
1736.5,0.137
1736,0.1358
1735.5,0.1344
1735,0.1324
1734.5,0.1302
1734,0.1284
1733.5,0.1271
1733,0.1263
1732.5,0.1259
1732,0.1259
1731.5,0.126
1731,0.1258
1730.5,0.1253
1730,0.1248
1729.5,0.1245
1729,0.1244
1728.5,0.1246
1728,0.1248
1727.5,0.1251
1727,0.1254
1726.5,0.1256
1726,0.1258
1725.5,0.1259
1725,0.1259
1724.5,0.1261
1724,0.1261
1723.5,0.1263
1723,0.1267
1722.5,0.1272
1722,0.1278
1721.5,0.1282
1721,0.1281
1720.5,0.1272
1720,0.1262
1719.5,0.1258
1719,0.1258
1718.5,0.1256
1718,0.125
1717.5,0.1242
1717,0.1236
1716.5,0.1234
1716,0.1231
1715.5,0.1225
1715,0.1216
1714.5,0.1209
1714,0.1204
1713.5,0.1199
1713,0.1194
1712.5,0.1189
1712,0.1184
1711.5,0.1179
1711,0.1174
1710.5,0.1169
1710,0.1164
1709.5,0.1157
1709,0.115
1708.5,0.1144
1708,0.1139
1707.5,0.1132
1707,0.1119
1706.5,0.1105
1706,0.1094
1705.5,0.1084
1705,0.1076
1704.5,0.107
1704,0.1066
1703.5,0.1064
1703,0.1055
1702.5,0.104
1702,0.1027
1701.5,0.1003
1701,0.0967
1700.5,0.0934
1700,0.091
1699.5,0.0894
1699,0.0879
1698.5,0.0859
1698,0.0844
1697.5,0.0838
1697,0.083
1696.5,0.081
1696,0.0785
1695.5,0.0765
1695,0.0754
1694.5,0.0749
1694,0.0745
1693.5,0.0741
1693,0.0736
1692.5,0.0732
1692,0.073
1691.5,0.0729
1691,0.0728
1690.5,0.0728
1690,0.0729
1689.5,0.0733
1689,0.0738
1688.5,0.0743
1688,0.0744
1687.5,0.0745
1687,0.0749
1686.5,0.0761
1686,0.0784
1685.5,0.0802
1685,0.0806
1684.5,0.0806
1684,0.0809
1683.5,0.0817
1683,0.0828
1682.5,0.0843
1682,0.0859
1681.5,0.0875
1681,0.089
1680.5,0.0902
1680,0.0916
1679.5,0.0935
1679,0.0957
1678.5,0.0979
1678,0.0997
1677.5,0.1013
1677,0.1031
1676.5,0.1045
1676,0.1052
1675.5,0.1058
1675,0.1068
1674.5,0.1083
1674,0.1103
1673.5,0.1127
1673,0.1151
1672.5,0.1171
1672,0.1184
1671.5,0.1194
1671,0.1208
1670.5,0.1224
1670,0.1235
1669.5,0.124
1669,0.1247
1668.5,0.1257
1668,0.1269
1667.5,0.1283
1667,0.1296
1666.5,0.1309
1666,0.1319
1665.5,0.1325
1665,0.133
1664.5,0.1335
1664,0.1339
1663.5,0.1338
1663,0.1332
1662.5,0.1327
1662,0.1324
1661.5,0.1323
1661,0.1322
1660.5,0.1319
1660,0.1315
1659.5,0.1311
1659,0.1307
1658.5,0.1304
1658,0.1304
1657.5,0.1303
1657,0.1303
1656.5,0.1299
1656,0.1287
1655.5,0.1267
1655,0.1255
1654.5,0.1253
1654,0.1241
1653.5,0.1223
1653,0.1207
1652.5,0.1197
1652,0.1194
1651.5,0.1195
1651,0.1194
1650.5,0.1191
1650,0.1186
1649.5,0.1178
1649,0.1166
1648.5,0.1148
1648,0.113
1647.5,0.1117
1647,0.1104
1646.5,0.1087
1646,0.107
1645.5,0.1054
1645,0.1042
1644.5,0.1031
1644,0.1019
1643.5,0.1006
1643,0.0992
1642.5,0.0978
1642,0.0964
1641.5,0.0952
1641,0.094
1640.5,0.0927
1640,0.0915
1639.5,0.0905
1639,0.0896
1638.5,0.0884
1638,0.0867
1637.5,0.0853
1637,0.0846
1636.5,0.0837
1636,0.0818
1635.5,0.0796
1635,0.0781
1634.5,0.0773
1634,0.0769
1633.5,0.0766
1633,0.0762
1632.5,0.0758
1632,0.0755
1631.5,0.0753
1631,0.0751
1630.5,0.0748
1630,0.0746
1629.5,0.0747
1629,0.0748
1628.5,0.0748
1628,0.0749
1627.5,0.0754
1627,0.0763
1626.5,0.0772
1626,0.0781
1625.5,0.0789
1625,0.08
1624.5,0.081
1624,0.0817
1623.5,0.0824
1623,0.0834
1622.5,0.085
1622,0.0868
1621.5,0.0889
1621,0.0913
1620.5,0.0939
1620,0.0964
1619.5,0.0986
1619,0.1011
1618.5,0.1047
1618,0.1095
1617.5,0.1142
1617,0.119
1616.5,0.1242
1616,0.1304
1615.5,0.1372
1615,0.1445
1614.5,0.1524
1614,0.161
1613.5,0.1706
1613,0.1812
1612.5,0.1931
1612,0.2064
1611.5,0.2216
1611,0.239
1610.5,0.2589
1610,0.282
1609.5,0.3087
1609,0.3398
1608.5,0.3759
1608,0.4175
1607.5,0.4654
1607,0.5199
1606.5,0.5811
1606,0.6487
1605.5,0.7221
1605,0.8004
1604.5,0.8819
1604,0.9643
1603.5,1.0448
1603,1.1193
1602.5,1.1819
1602,1.2261
1601.5,1.2465
1601,1.2393
1600.5,1.2044
1600,1.1463
1599.5,1.0721
1599,0.9892
1598.5,0.9039
1598,0.8212
1597.5,0.7442
1597,0.6746
1596.5,0.6133
1596,0.5601
1595.5,0.5147
1595,0.476
1594.5,0.4431
1594,0.4151
1593.5,0.3911
1593,0.3702
1592.5,0.3517
1592,0.3353
1591.5,0.3207
1591,0.3081
1590.5,0.2975
1590,0.2891
1589.5,0.2833
1589,0.2804
1588.5,0.2808
1588,0.2849
1587.5,0.2932
1587,0.3061
1586.5,0.3236
1586,0.3456
1585.5,0.3713
1585,0.3989
1584.5,0.4255
1584,0.4476
1583.5,0.4613
1583,0.4634
1582.5,0.4527
1582,0.4307
1581.5,0.4006
1581,0.3666
1580.5,0.3325
1580,0.3008
1579.5,0.2729
1579,0.2491
1578.5,0.2298
1578,0.2153
1577.5,0.2047
1577,0.1956
1576.5,0.1869
1576,0.179
1575.5,0.1724
1575,0.1668
1574.5,0.1617
1574,0.1568
1573.5,0.152
1573,0.1471
1572.5,0.1422
1572,0.1371
1571.5,0.1323
1571,0.128
1570.5,0.1236
1570,0.1191
1569.5,0.1148
1569,0.1114
1568.5,0.1088
1568,0.1064
1567.5,0.1041
1567,0.1018
1566.5,0.0996
1566,0.0974
1565.5,0.0952
1565,0.093
1564.5,0.0912
1564,0.0899
1563.5,0.089
1563,0.0883
1562.5,0.0879
1562,0.0879
1561.5,0.0877
1561,0.0869
1560.5,0.0861
1560,0.0861
1559.5,0.0867
1559,0.0871
1558.5,0.0875
1558,0.0883
1557.5,0.0896
1557,0.0912
1556.5,0.0929
1556,0.0949
1555.5,0.0965
1555,0.0977
1554.5,0.0987
1554,0.1001
1553.5,0.1021
1553,0.1044
1552.5,0.1065
1552,0.1085
1551.5,0.1105
1551,0.1124
1550.5,0.1142
1550,0.116
1549.5,0.1184
1549,0.1213
1548.5,0.1245
1548,0.1278
1547.5,0.1309
1547,0.1339
1546.5,0.1369
1546,0.1398
1545.5,0.1422
1545,0.1445
1544.5,0.1469
1544,0.1496
1543.5,0.1522
1543,0.154
1542.5,0.1546
1542,0.1544
1541.5,0.1542
1541,0.1549
1540.5,0.1559
1540,0.1561
1539.5,0.1556
1539,0.155
1538.5,0.1544
1538,0.1543
1537.5,0.1544
1537,0.1544
1536.5,0.1539
1536,0.153
1535.5,0.1518
1535,0.1506
1534.5,0.1491
1534,0.1469
1533.5,0.1448
1533,0.1432
1532.5,0.1422
1532,0.1415
1531.5,0.1409
1531,0.1404
1530.5,0.1401
1530,0.1399
1529.5,0.1398
1529,0.1398
1528.5,0.1396
1528,0.1392
1527.5,0.1388
1527,0.1387
1526.5,0.1388
1526,0.1387
1525.5,0.1386
1525,0.1386
1524.5,0.1387
1524,0.1388
1523.5,0.1386
1523,0.1385
1522.5,0.1386
1522,0.1386
1521.5,0.1382
1521,0.1378
1520.5,0.1375
1520,0.1375
1519.5,0.1375
1519,0.1375
1518.5,0.1375
1518,0.1372
1517.5,0.1364
1517,0.1356
1516.5,0.1352
1516,0.1352
1515.5,0.1353
1515,0.1354
1514.5,0.1356
1514,0.1358
1513.5,0.136
1513,0.1361
1512.5,0.1361
1512,0.1364
1511.5,0.1371
1511,0.1382
1510.5,0.1395
1510,0.1406
1509.5,0.1418
1509,0.1433
1508.5,0.1454
1508,0.1484
1507.5,0.1519
1507,0.1561
1506.5,0.1618
1506,0.1691
1505.5,0.1782
1505,0.1888
1504.5,0.201
1504,0.215
1503.5,0.2312
1503,0.2503
1502.5,0.2731
1502,0.3002
1501.5,0.3319
1501,0.3691
1500.5,0.4129
1500,0.4651
1499.5,0.5285
1499,0.6062
1498.5,0.7007
1498,0.813
1497.5,0.9452
1497,1.1032
1496.5,1.2978
1496,1.5398
1495.5,1.8355
1495,2.1869
1494.5,2.5931
1494,3.043
1493.5,3.464
1493,3.5037
1492.5,3.1088
1492,2.6883
1491.5,2.3229
1491,2.006
1490.5,1.734
1490,1.5066
1489.5,1.3205
1489,1.1686
1488.5,1.0422
1488,0.9341
1487.5,0.8401
1487,0.7582
1486.5,0.6869
1486,0.6241
1485.5,0.568
1485,0.5171
1484.5,0.4709
1484,0.4293
1483.5,0.3923
1483,0.3601
1482.5,0.3321
1482,0.3078
1481.5,0.2869
1481,0.2689
1480.5,0.2537
1480,0.241
1479.5,0.2305
1479,0.2216
1478.5,0.2141
1478,0.2078
1477.5,0.2027
1477,0.1984
1476.5,0.1947
1476,0.192
1475.5,0.1907
1475,0.1903
1474.5,0.1904
1474,0.1906
1473.5,0.191
1473,0.1918
1472.5,0.1931
1472,0.195
1471.5,0.1977
1471,0.2011
1470.5,0.2051
1470,0.2094
1469.5,0.214
1469,0.219
1468.5,0.2244
1468,0.2301
1467.5,0.2359
1467,0.2418
1466.5,0.2481
1466,0.2547
1465.5,0.2615
1465,0.269
1464.5,0.2775
1464,0.287
1463.5,0.2976
1463,0.3093
1462.5,0.3228
1462,0.3384
1461.5,0.3567
1461,0.3784
1460.5,0.4045
1460,0.4363
1459.5,0.4756
1459,0.5246
1458.5,0.5858
1458,0.6633
1457.5,0.7646
1457,0.8997
1456.5,1.0751
1456,1.2894
1455.5,1.537
1455,1.8163
1454.5,2.1355
1454,2.5084
1453.5,2.9179
1453,3.2044
1452.5,3.2309
1452,3.1165
1451.5,2.9198
1451,2.6676
1450.5,2.4257
1450,2.2233
1449.5,2.0575
1449,1.9207
1448.5,1.8052
1448,1.7047
1447.5,1.6154
1447,1.5343
1446.5,1.4585
1446,1.3847
1445.5,1.3117
1445,1.2397
1444.5,1.17
1444,1.1036
1443.5,1.0411
1443,0.9828
1442.5,0.929
1442,0.8794
1441.5,0.8333
1441,0.7905
1440.5,0.7507
1440,0.7132
1439.5,0.6777
1439,0.644
1438.5,0.6116
1438,0.5793
1437.5,0.5456
1437,0.5107
1436.5,0.4766
1436,0.4457
1435.5,0.4186
1435,0.3942
1434.5,0.3714
1434,0.3499
1433.5,0.3298
1433,0.3114
1432.5,0.2947
1432,0.2796
1431.5,0.2662
1431,0.2539
1430.5,0.2426
1430,0.2322
1429.5,0.2228
1429,0.2145
1428.5,0.2072
1428,0.2006
1427.5,0.1946
1427,0.189
1426.5,0.1837
1426,0.1786
1425.5,0.1739
1425,0.1693
1424.5,0.1649
1424,0.1606
1423.5,0.1568
1423,0.1534
1422.5,0.1504
1422,0.1474
1421.5,0.1446
1421,0.1417
1420.5,0.1387
1420,0.1351
1419.5,0.1313
1419,0.1277
1418.5,0.1248
1418,0.1223
1417.5,0.1199
1417,0.1175
1416.5,0.1152
1416,0.1131
1415.5,0.1112
1415,0.1093
1414.5,0.1076
1414,0.1061
1413.5,0.1047
1413,0.1035
1412.5,0.1024
1412,0.1014
1411.5,0.1005
1411,0.0998
1410.5,0.0993
1410,0.099
1409.5,0.0988
1409,0.0989
1408.5,0.0992
1408,0.0997
1407.5,0.1003
1407,0.101
1406.5,0.1018
1406,0.1026
1405.5,0.1034
1405,0.1042
1404.5,0.1053
1404,0.1068
1403.5,0.1087
1403,0.1107
1402.5,0.113
1402,0.1155
1401.5,0.1181
1401,0.1207
1400.5,0.1234
1400,0.1261
1399.5,0.1288
1399,0.1317
1398.5,0.1351
1398,0.139
1397.5,0.1433
1397,0.1477
1396.5,0.1522
1396,0.1568
1395.5,0.1614
1395,0.1662
1394.5,0.1713
1394,0.1771
1393.5,0.1834
1393,0.1901
1392.5,0.1971
1392,0.2044
1391.5,0.212
1391,0.22
1390.5,0.2283
1390,0.2369
1389.5,0.2455
1389,0.254
1388.5,0.2625
1388,0.2709
1387.5,0.2794
1387,0.288
1386.5,0.2966
1386,0.3049
1385.5,0.313
1385,0.3207
1384.5,0.3281
1384,0.335
1383.5,0.3416
1383,0.3477
1382.5,0.3535
1382,0.359
1381.5,0.3644
1381,0.3698
1380.5,0.3751
1380,0.3805
1379.5,0.386
1379,0.3919
1378.5,0.3981
1378,0.4045
1377.5,0.4111
1377,0.4178
1376.5,0.4243
1376,0.4304
1375.5,0.436
1375,0.4406
1374.5,0.4443
1374,0.4469
1373.5,0.4487
1373,0.4497
1372.5,0.45
1372,0.4496
1371.5,0.4486
1371,0.4471
1370.5,0.4452
1370,0.443
1369.5,0.4405
1369,0.4379
1368.5,0.4351
1368,0.4323
1367.5,0.4297
1367,0.4271
1366.5,0.4247
1366,0.4224
1365.5,0.4201
1365,0.4176
1364.5,0.4151
1364,0.4123
1363.5,0.4092
1363,0.4059
1362.5,0.4024
1362,0.3987
1361.5,0.3946
1361,0.3903
1360.5,0.3857
1360,0.3811
1359.5,0.3763
1359,0.3715
1358.5,0.3665
1358,0.3617
1357.5,0.357
1357,0.3526
1356.5,0.3485
1356,0.3449
1355.5,0.3418
1355,0.3391
1354.5,0.3368
1354,0.3351
1353.5,0.3336
1353,0.3325
1352.5,0.3315
1352,0.3306
1351.5,0.3298
1351,0.3291
1350.5,0.3282
1350,0.3272
1349.5,0.326
1349,0.3244
1348.5,0.3226
1348,0.3204
1347.5,0.3179
1347,0.315
1346.5,0.3118
1346,0.3083
1345.5,0.3045
1345,0.3005
1344.5,0.2963
1344,0.2921
1343.5,0.2879
1343,0.2838
1342.5,0.2799
1342,0.2762
1341.5,0.2729
1341,0.2698
1340.5,0.2671
1340,0.265
1339.5,0.2635
1339,0.2627
1338.5,0.2626
1338,0.2634
1337.5,0.265
1337,0.2673
1336.5,0.2705
1336,0.2744
1335.5,0.2791
1335,0.2844
1334.5,0.2902
1334,0.2964
1333.5,0.303
1333,0.3097
1332.5,0.3165
1332,0.323
1331.5,0.3292
1331,0.3348
1330.5,0.3397
1330,0.3438
1329.5,0.3468
1329,0.3486
1328.5,0.3493
1328,0.3489
1327.5,0.3474
1327,0.3452
1326.5,0.3425
1326,0.3393
1325.5,0.336
1325,0.3327
1324.5,0.3295
1324,0.3266
1323.5,0.3241
1323,0.3218
1322.5,0.32
1322,0.3185
1321.5,0.3174
1321,0.3168
1320.5,0.3167
1320,0.317
1319.5,0.3177
1319,0.3189
1318.5,0.3204
1318,0.3223
1317.5,0.3245
1317,0.327
1316.5,0.3298
1316,0.3326
1315.5,0.3354
1315,0.3381
1314.5,0.3405
1314,0.3426
1313.5,0.3443
1313,0.3454
1312.5,0.3461
1312,0.3461
1311.5,0.3456
1311,0.3444
1310.5,0.3427
1310,0.3405
1309.5,0.3378
1309,0.3348
1308.5,0.3315
1308,0.3281
1307.5,0.3247
1307,0.3211
1306.5,0.3175
1306,0.3139
1305.5,0.3103
1305,0.3067
1304.5,0.3031
1304,0.2994
1303.5,0.2957
1303,0.2919
1302.5,0.2881
1302,0.2842
1301.5,0.2803
1301,0.2765
1300.5,0.2727
1300,0.269
1299.5,0.2655
1299,0.2622
1298.5,0.2593
1298,0.2566
1297.5,0.2543
1297,0.2522
1296.5,0.2503
1296,0.2486
1295.5,0.247
1295,0.2455
1294.5,0.2439
1294,0.2422
1293.5,0.2405
1293,0.2386
1292.5,0.2365
1292,0.2343
1291.5,0.232
1291,0.2295
1290.5,0.2268
1290,0.2241
1289.5,0.2212
1289,0.2184
1288.5,0.2157
1288,0.2131
1287.5,0.2107
1287,0.2085
1286.5,0.2065
1286,0.2047
1285.5,0.2033
1285,0.202
1284.5,0.201
1284,0.2001
1283.5,0.1993
1283,0.1985
1282.5,0.1977
1282,0.1968
1281.5,0.1958
1281,0.1946
1280.5,0.1933
1280,0.1917
1279.5,0.1898
1279,0.1877
1278.5,0.1852
1278,0.1826
1277.5,0.1797
1277,0.1767
1276.5,0.1736
1276,0.1704
1275.5,0.1673
1275,0.1642
1274.5,0.1613
1274,0.1584
1273.5,0.1557
1273,0.1532
1272.5,0.1509
1272,0.1487
1271.5,0.1468
1271,0.1451
1270.5,0.1435
1270,0.1421
1269.5,0.1409
1269,0.1399
1268.5,0.1391
1268,0.1384
1267.5,0.1379
1267,0.1376
1266.5,0.1373
1266,0.1371
1265.5,0.1371
1265,0.1372
1264.5,0.1374
1264,0.1376
1263.5,0.138
1263,0.1385
1262.5,0.139
1262,0.1397
1261.5,0.1405
1261,0.1415
1260.5,0.1425
1260,0.1436
1259.5,0.1448
1259,0.1461
1258.5,0.1474
1258,0.1488
1257.5,0.1504
1257,0.152
1256.5,0.1537
1256,0.1554
1255.5,0.1572
1255,0.159
1254.5,0.1608
1254,0.1626
1253.5,0.1643
1253,0.1661
1252.5,0.1678
1252,0.1694
1251.5,0.171
1251,0.1724
1250.5,0.1738
1250,0.175
1249.5,0.1762
1249,0.1772
1248.5,0.1781
1248,0.1789
1247.5,0.1795
1247,0.18
1246.5,0.1804
1246,0.1807
1245.5,0.1809
1245,0.1809
1244.5,0.1807
1244,0.1805
1243.5,0.1802
1243,0.1797
1242.5,0.1791
1242,0.1784
1241.5,0.1777
1241,0.1769
1240.5,0.176
1240,0.175
1239.5,0.174
1239,0.1728
1238.5,0.1717
1238,0.1704
1237.5,0.1692
1237,0.1679
1236.5,0.1666
1236,0.1654
1235.5,0.1643
1235,0.1632
1234.5,0.1621
1234,0.161
1233.5,0.1601
1233,0.1592
1232.5,0.1583
1232,0.1576
1231.5,0.1568
1231,0.1561
1230.5,0.1554
1230,0.1547
1229.5,0.154
1229,0.1534
1228.5,0.1527
1228,0.152
1227.5,0.1513
1227,0.1504
1226.5,0.1495
1226,0.1485
1225.5,0.1475
1225,0.1464
1224.5,0.1452
1224,0.1439
1223.5,0.1426
1223,0.1412
1222.5,0.1398
1222,0.1384
1221.5,0.1371
1221,0.1359
1220.5,0.1347
1220,0.1337
1219.5,0.1327
1219,0.1319
1218.5,0.1313
1218,0.1309
1217.5,0.1306
1217,0.1306
1216.5,0.1308
1216,0.1311
1215.5,0.1315
1215,0.1322
1214.5,0.133
1214,0.1341
1213.5,0.1353
1213,0.1368
1212.5,0.1385
1212,0.1402
1211.5,0.1422
1211,0.1444
1210.5,0.1467
1210,0.1493
1209.5,0.1521
1209,0.155
1208.5,0.1582
1208,0.1615
1207.5,0.1651
1207,0.1689
1206.5,0.1729
1206,0.1771
1205.5,0.1815
1205,0.1861
1204.5,0.1908
1204,0.1957
1203.5,0.2007
1203,0.2059
1202.5,0.211
1202,0.2162
1201.5,0.2212
1201,0.2261
1200.5,0.2307
1200,0.2351
1199.5,0.2391
1199,0.2426
1198.5,0.2457
1198,0.2484
1197.5,0.2508
1197,0.2527
1196.5,0.2543
1196,0.2557
1195.5,0.2569
1195,0.2579
1194.5,0.259
1194,0.26
1193.5,0.2612
1193,0.2623
1192.5,0.2635
1192,0.2646
1191.5,0.2658
1191,0.267
1190.5,0.2685
1190,0.2701
1189.5,0.272
1189,0.2743
1188.5,0.2771
1188,0.2806
1187.5,0.285
1187,0.2904
1186.5,0.2971
1186,0.3049
1185.5,0.314
1185,0.3242
1184.5,0.3351
1184,0.3463
1183.5,0.3573
1183,0.3672
1182.5,0.3753
1182,0.3808
1181.5,0.3833
1181,0.3822
1180.5,0.3774
1180,0.369
1179.5,0.3575
1179,0.3434
1178.5,0.3277
1178,0.3113
1177.5,0.2952
1177,0.2799
1176.5,0.2662
1176,0.2542
1175.5,0.244
1175,0.2354
1174.5,0.2283
1174,0.2224
1173.5,0.2174
1173,0.2132
1172.5,0.2097
1172,0.2066
1171.5,0.2039
1171,0.2015
1170.5,0.1993
1170,0.1974
1169.5,0.1956
1169,0.1939
1168.5,0.1923
1168,0.1909
1167.5,0.1896
1167,0.1884
1166.5,0.1873
1166,0.1865
1165.5,0.1858
1165,0.1855
1164.5,0.1856
1164,0.186
1163.5,0.187
1163,0.1886
1162.5,0.191
1162,0.1944
1161.5,0.1989
1161,0.2047
1160.5,0.2121
1160,0.2212
1159.5,0.232
1159,0.2446
1158.5,0.2588
1158,0.2742
1157.5,0.2902
1157,0.3061
1156.5,0.3208
1156,0.3334
1155.5,0.3428
1155,0.3483
1154.5,0.3493
1154,0.3455
1153.5,0.337
1153,0.3242
1152.5,0.3078
1152,0.289
1151.5,0.2687
1151,0.2483
1150.5,0.2286
1150,0.2104
1149.5,0.1942
1149,0.1802
1148.5,0.1683
1148,0.1582
1147.5,0.1496
1147,0.1423
1146.5,0.1359
1146,0.1301
1145.5,0.1249
1145,0.1201
1144.5,0.1156
1144,0.1114
1143.5,0.1076
1143,0.104
1142.5,0.1007
1142,0.0976
1141.5,0.0948
1141,0.0923
1140.5,0.0901
1140,0.0883
1139.5,0.0868
1139,0.0856
1138.5,0.0847
1138,0.0841
1137.5,0.0836
1137,0.0834
1136.5,0.0834
1136,0.0835
1135.5,0.0838
1135,0.0843
1134.5,0.0849
1134,0.0856
1133.5,0.0865
1133,0.0875
1132.5,0.0886
1132,0.0898
1131.5,0.091
1131,0.0923
1130.5,0.0937
1130,0.0952
1129.5,0.0967
1129,0.0982
1128.5,0.0998
1128,0.1016
1127.5,0.1033
1127,0.1051
1126.5,0.107
1126,0.109
1125.5,0.1111
1125,0.1131
1124.5,0.1152
1124,0.1174
1123.5,0.1197
1123,0.1221
1122.5,0.1247
1122,0.1274
1121.5,0.1302
1121,0.1331
1120.5,0.1361
1120,0.1392
1119.5,0.1425
1119,0.1459
1118.5,0.1494
1118,0.1529
1117.5,0.1565
1117,0.16
1116.5,0.1634
1116,0.1666
1115.5,0.1695
1115,0.1721
1114.5,0.1743
1114,0.1761
1113.5,0.1776
1113,0.1785
1112.5,0.1791
1112,0.1793
1111.5,0.1791
1111,0.1785
1110.5,0.1777
1110,0.1766
1109.5,0.1753
1109,0.174
1108.5,0.1725
1108,0.1711
1107.5,0.1696
1107,0.1682
1106.5,0.1668
1106,0.1656
1105.5,0.1645
1105,0.1636
1104.5,0.1629
1104,0.1624
1103.5,0.1619
1103,0.1617
1102.5,0.1615
1102,0.1615
1101.5,0.1615
1101,0.1615
1100.5,0.1616
1100,0.1618
1099.5,0.1621
1099,0.1625
1098.5,0.163
1098,0.1634
1097.5,0.1637
1097,0.1641
1096.5,0.1645
1096,0.1649
1095.5,0.1653
1095,0.1658
1094.5,0.1663
1094,0.1668
1093.5,0.1673
1093,0.1678
1092.5,0.1684
1092,0.169
1091.5,0.1698
1091,0.1707
1090.5,0.1718
1090,0.173
1089.5,0.1745
1089,0.1763
1088.5,0.1783
1088,0.1807
1087.5,0.1834
1087,0.1865
1086.5,0.19
1086,0.1939
1085.5,0.1982
1085,0.203
1084.5,0.2082
1084,0.2138
1083.5,0.2199
1083,0.2263
1082.5,0.2328
1082,0.2396
1081.5,0.2464
1081,0.2532
1080.5,0.2599
1080,0.2664
1079.5,0.2727
1079,0.2789
1078.5,0.2852
1078,0.2917
1077.5,0.2987
1077,0.3065
1076.5,0.3152
1076,0.325
1075.5,0.3358
1075,0.3476
1074.5,0.36
1074,0.3727
1073.5,0.3852
1073,0.3971
1072.5,0.4079
1072,0.4175
1071.5,0.4258
1071,0.4326
1070.5,0.4378
1070,0.4413
1069.5,0.4428
1069,0.4424
1068.5,0.4401
1068,0.4359
1067.5,0.4299
1067,0.4224
1066.5,0.4137
1066,0.4039
1065.5,0.3935
1065,0.3826
1064.5,0.3716
1064,0.3607
1063.5,0.3501
1063,0.3398
1062.5,0.3301
1062,0.3209
1061.5,0.3124
1061,0.3045
1060.5,0.2972
1060,0.2906
1059.5,0.2845
1059,0.2791
1058.5,0.2741
1058,0.2696
1057.5,0.2653
1057,0.2613
1056.5,0.2576
1056,0.2541
1055.5,0.251
1055,0.2481
1054.5,0.2454
1054,0.2429
1053.5,0.2406
1053,0.2384
1052.5,0.2363
1052,0.2343
1051.5,0.2324
1051,0.2306
1050.5,0.2289
1050,0.2273
1049.5,0.2258
1049,0.2244
1048.5,0.2229
1048,0.2215
1047.5,0.2201
1047,0.2188
1046.5,0.2176
1046,0.2164
1045.5,0.2154
1045,0.2144
1044.5,0.2136
1044,0.2128
1043.5,0.2122
1043,0.2118
1042.5,0.2116
1042,0.2117
1041.5,0.2123
1041,0.2134
1040.5,0.2152
1040,0.2178
1039.5,0.2214
1039,0.2262
1038.5,0.2328
1038,0.2413
1037.5,0.2524
1037,0.2664
1036.5,0.284
1036,0.3058
1035.5,0.3324
1035,0.3642
1034.5,0.4015
1034,0.4439
1033.5,0.4909
1033,0.5412
1032.5,0.5929
1032,0.6437
1031.5,0.6908
1031,0.7322
1030.5,0.7668
1030,0.7945
1029.5,0.8158
1029,0.8303
1028.5,0.8367
1028,0.8331
1027.5,0.8183
1027,0.793
1026.5,0.7594
1026,0.7209
1025.5,0.6806
1025,0.6409
1024.5,0.6033
1024,0.5688
1023.5,0.5377
1023,0.5099
1022.5,0.4851
1022,0.4629
1021.5,0.4429
1021,0.4247
1020.5,0.4079
1020,0.3924
1019.5,0.378
1019,0.3645
1018.5,0.3518
1018,0.3398
1017.5,0.3286
1017,0.318
1016.5,0.3083
1016,0.2991
1015.5,0.2906
1015,0.2825
1014.5,0.275
1014,0.2678
1013.5,0.2612
1013,0.255
1012.5,0.2492
1012,0.2439
1011.5,0.2391
1011,0.2348
1010.5,0.2311
1010,0.2279
1009.5,0.2255
1009,0.2239
1008.5,0.2232
1008,0.2235
1007.5,0.225
1007,0.2279
1006.5,0.2322
1006,0.2377
1005.5,0.2444
1005,0.2515
1004.5,0.2584
1004,0.264
1003.5,0.2675
1003,0.2681
1002.5,0.2654
1002,0.2593
1001.5,0.2503
1001,0.2391
1000.5,0.2267
1000,0.2142
999.5,0.2027
999,0.1931
998.5,0.1858
998,0.1805
997.5,0.1769
997,0.1747
996.5,0.1735
996,0.173
995.5,0.1731
995,0.1737
994.5,0.1746
994,0.1758
993.5,0.1772
993,0.179
992.5,0.181
992,0.1832
991.5,0.1856
991,0.1883
990.5,0.1912
990,0.1942
989.5,0.1974
989,0.2007
988.5,0.2042
988,0.2081
987.5,0.2122
987,0.2166
986.5,0.2213
986,0.2261
985.5,0.2311
985,0.236
984.5,0.2409
984,0.2455
983.5,0.2499
983,0.2538
982.5,0.2573
982,0.2603
981.5,0.2627
981,0.2645
980.5,0.2657
980,0.2661
979.5,0.2658
979,0.2647
978.5,0.2629
978,0.2605
977.5,0.2575
977,0.2541
976.5,0.2505
976,0.2468
975.5,0.243
975,0.2396
974.5,0.2366
974,0.2341
973.5,0.2324
973,0.2314
972.5,0.2313
972,0.2321
971.5,0.2338
971,0.2364
970.5,0.2397
970,0.2438
969.5,0.2485
969,0.2536
968.5,0.2589
968,0.2642
967.5,0.2693
967,0.2742
966.5,0.2784
966,0.282
965.5,0.2845
965,0.286
964.5,0.2863
964,0.2852
963.5,0.2829
963,0.2792
962.5,0.2742
962,0.268
961.5,0.2609
961,0.253
960.5,0.2446
960,0.236
959.5,0.2275
959,0.2194
958.5,0.2116
958,0.2045
957.5,0.1982
957,0.1926
956.5,0.1876
956,0.1833
955.5,0.1795
955,0.1763
954.5,0.1736
954,0.1715
953.5,0.1697
953,0.1684
952.5,0.1675
952,0.1669
951.5,0.1667
951,0.1669
950.5,0.1674
950,0.1683
949.5,0.1695
949,0.171
948.5,0.1729
948,0.1751
947.5,0.1774
947,0.18
946.5,0.1826
946,0.1851
945.5,0.1876
945,0.19
944.5,0.192
944,0.1935
943.5,0.1946
943,0.1951
942.5,0.1949
942,0.1942
941.5,0.1929
941,0.1909
940.5,0.1885
940,0.1857
939.5,0.1826
939,0.1793
938.5,0.1758
938,0.1722
937.5,0.1687
937,0.1651
936.5,0.1617
936,0.1583
935.5,0.1551
935,0.1522
934.5,0.1496
934,0.1473
933.5,0.1453
933,0.1437
932.5,0.1424
932,0.1415
931.5,0.141
931,0.1408
930.5,0.141
930,0.1417
929.5,0.1426
929,0.1439
928.5,0.1455
928,0.1474
927.5,0.1494
927,0.1517
926.5,0.1541
926,0.1567
925.5,0.1596
925,0.1626
924.5,0.1657
924,0.169
923.5,0.1723
923,0.1758
922.5,0.1793
922,0.1831
921.5,0.187
921,0.1912
920.5,0.1955
920,0.2001
919.5,0.2051
919,0.2106
918.5,0.2166
918,0.2232
917.5,0.2305
917,0.2385
916.5,0.2475
916,0.2575
915.5,0.2686
915,0.2808
914.5,0.2942
914,0.3089
913.5,0.3247
913,0.3415
912.5,0.3593
912,0.3777
911.5,0.3967
911,0.4158
910.5,0.4348
910,0.4532
909.5,0.4705
909,0.4861
908.5,0.4995
908,0.51
907.5,0.5172
907,0.5208
906.5,0.5207
906,0.5168
905.5,0.5093
905,0.4985
904.5,0.4848
904,0.4687
903.5,0.4505
903,0.4307
902.5,0.4099
902,0.3886
901.5,0.3673
901,0.3463
900.5,0.3258
900,0.3063
899.5,0.288
899,0.2709
898.5,0.2552
898,0.241
897.5,0.2283
897,0.2169
896.5,0.2068
896,0.1977
895.5,0.1896
895,0.1822
894.5,0.1756
894,0.1696
893.5,0.164
893,0.1588
892.5,0.1539
892,0.1492
891.5,0.1447
891,0.1403
890.5,0.1362
890,0.1322
889.5,0.1284
889,0.1246
888.5,0.121
888,0.1175
887.5,0.1142
887,0.1109
886.5,0.1078
886,0.1048
885.5,0.102
885,0.0992
884.5,0.0967
884,0.0943
883.5,0.0921
883,0.09
882.5,0.088
882,0.0862
881.5,0.0846
881,0.083
880.5,0.0817
880,0.0807
879.5,0.0798
879,0.0791
878.5,0.0785
878,0.078
877.5,0.0776
877,0.0773
876.5,0.0772
876,0.0772
875.5,0.0773
875,0.0776
874.5,0.078
874,0.0785
873.5,0.0791
873,0.0797
872.5,0.0805
872,0.0813
871.5,0.0823
871,0.0833
870.5,0.0844
870,0.0855
869.5,0.0868
869,0.0881
868.5,0.0894
868,0.0909
867.5,0.0924
867,0.0939
866.5,0.0955
866,0.097
865.5,0.0986
865,0.1002
864.5,0.1018
864,0.1036
863.5,0.1053
863,0.1071
862.5,0.1088
862,0.1105
861.5,0.1122
861,0.1139
860.5,0.1155
860,0.1172
859.5,0.1189
859,0.1207
858.5,0.1225
858,0.1243
857.5,0.1261
857,0.1279
856.5,0.1298
856,0.1317
855.5,0.1337
855,0.1358
854.5,0.138
854,0.1404
853.5,0.143
853,0.1459
852.5,0.1492
852,0.1528
851.5,0.1569
851,0.1615
850.5,0.1666
850,0.1721
849.5,0.178
849,0.1843
848.5,0.1908
848,0.1974
847.5,0.2041
847,0.2107
846.5,0.2171
846,0.2231
845.5,0.2288
845,0.2339
844.5,0.2386
844,0.2426
843.5,0.2458
843,0.2482
842.5,0.2496
842,0.25
841.5,0.2495
841,0.248
840.5,0.2453
840,0.2416
839.5,0.2368
839,0.231
838.5,0.2243
838,0.2167
837.5,0.2085
837,0.1996
836.5,0.1904
836,0.1811
835.5,0.1717
835,0.1625
834.5,0.1536
834,0.1451
833.5,0.1371
833,0.1298
832.5,0.1232
832,0.1173
831.5,0.1121
831,0.1074
830.5,0.1031
830,0.0993
829.5,0.0958
829,0.0926
828.5,0.0898
828,0.0872
827.5,0.0849
827,0.0827
826.5,0.0807
826,0.0789
825.5,0.0773
825,0.0759
824.5,0.0747
824,0.0736
823.5,0.0727
823,0.0719
822.5,0.0712
822,0.0707
821.5,0.0704
821,0.0702
820.5,0.0702
820,0.0705
819.5,0.0709
819,0.0715
818.5,0.0721
818,0.0729
817.5,0.0738
817,0.0748
816.5,0.0761
816,0.0775
815.5,0.0791
815,0.0807
814.5,0.0825
814,0.0844
813.5,0.0864
813,0.0884
812.5,0.0906
812,0.0928
811.5,0.0951
811,0.0974
810.5,0.0997
810,0.1021
809.5,0.1045
809,0.1069
808.5,0.1094
808,0.1118
807.5,0.1142
807,0.1166
806.5,0.119
806,0.1214
805.5,0.1239
805,0.1263
804.5,0.1288
804,0.1314
803.5,0.1339
803,0.1366
802.5,0.1393
802,0.1421
801.5,0.145
801,0.1481
800.5,0.1512
800,0.1544
799.5,0.1577
799,0.161
798.5,0.1643
798,0.1677
797.5,0.1712
797,0.1748
796.5,0.1784
796,0.1822
795.5,0.1861
795,0.1903
794.5,0.1946
794,0.1992
793.5,0.2039
793,0.2087
792.5,0.2138
792,0.2191
791.5,0.2247
791,0.2307
790.5,0.237
790,0.2436
789.5,0.2504
789,0.2575
788.5,0.2649
788,0.2726
787.5,0.2804
787,0.2886
786.5,0.297
786,0.3059
785.5,0.3151
785,0.3249
784.5,0.3353
784,0.3463
783.5,0.3582
783,0.3709
782.5,0.3847
782,0.3997
781.5,0.4161
781,0.434
780.5,0.4532
780,0.474
779.5,0.4964
779,0.5205
778.5,0.5466
778,0.5747
777.5,0.6049
777,0.6371
776.5,0.6713
776,0.7072
775.5,0.7447
775,0.7838
774.5,0.8248
774,0.8679
773.5,0.913
773,0.9602
772.5,1.0094
772,1.0608
771.5,1.1145
771,1.1705
770.5,1.2283
770,1.2872
769.5,1.3469
769,1.4073
768.5,1.4674
768,1.5261
767.5,1.5831
767,1.6395
766.5,1.6956
766,1.7502
765.5,1.8016
765,1.85
764.5,1.897
764,1.9452
763.5,1.9964
763,2.0499
762.5,2.1026
762,2.1515
761.5,2.1974
761,2.2431
760.5,2.2883
760,2.33
759.5,2.3664
759,2.3973
758.5,2.4208
758,2.4361
757.5,2.4449
757,2.4473
756.5,2.4382
756,2.414
755.5,2.3795
755,2.3429
754.5,2.3084
754,2.2767
753.5,2.2482
753,2.222
752.5,2.1962
752,2.1703
751.5,2.1463
751,2.1257
750.5,2.1076
750,2.091
749.5,2.076
749,2.0611
748.5,2.0411
748,2.0116
747.5,1.9719
747,1.9225
746.5,1.8625
746,1.7917
745.5,1.7121
745,1.6268
744.5,1.5382
744,1.4486
743.5,1.3602
743,1.2749
742.5,1.1939
742,1.1181
741.5,1.0481
741,0.9838
740.5,0.9242
740,0.8687
739.5,0.8171
739,0.7691
738.5,0.7244
738,0.6825
737.5,0.6426
737,0.6044
736.5,0.5673
736,0.5312
735.5,0.4959
735,0.4614
734.5,0.4281
734,0.3963
733.5,0.3667
733,0.3398
732.5,0.3163
732,0.2961
731.5,0.2793
731,0.2657
730.5,0.2549
730,0.2465
729.5,0.2401
729,0.2353
728.5,0.232
728,0.2296
727.5,0.2281
727,0.2272
726.5,0.2266
726,0.2263
725.5,0.2261
725,0.226
724.5,0.2259
724,0.2258
723.5,0.2256
723,0.2256
722.5,0.2257
722,0.2257
721.5,0.2258
721,0.2258
720.5,0.2259
720,0.2262
719.5,0.227
719,0.2286
718.5,0.2314
718,0.2357
717.5,0.2416
717,0.2496
716.5,0.26
716,0.273
715.5,0.2891
715,0.3085
714.5,0.3318
714,0.3593
713.5,0.3914
713,0.4289
712.5,0.4725
712,0.5235
711.5,0.5832
711,0.6536
710.5,0.737
710,0.8359
709.5,0.9529
709,1.0908
708.5,1.252
708,1.4391
707.5,1.6544
707,1.9021
706.5,2.1895
706,2.5273
705.5,2.9367
705,3.4169
704.5,3.6424
704,3.6161
703.5,3.6627
703,3.7462
702.5,3.8723
702,4.0535
701.5,4.1397
701,3.9153
700.5,3.7501
700,3.7583
699.5,3.9266
699,4.0677
698.5,4.1294
698,4.17
697.5,3.8959
697,3.6328
696.5,3.4946
696,3.494
695.5,3.6463
695,4.0315
694.5,3.6051
694,2.9035
693.5,2.4264
693,2.0515
692.5,1.7451
692,1.4933
691.5,1.2878
691,1.1215
690.5,0.9875
690,0.8801
689.5,0.7947
689,0.7268
688.5,0.6719
688,0.6263
687.5,0.5867
687,0.5513
686.5,0.5187
686,0.4884
685.5,0.4601
685,0.4338
684.5,0.4095
684,0.3874
683.5,0.3675
683,0.3498
682.5,0.3344
682,0.3212
681.5,0.3102
681,0.3013
680.5,0.2942
680,0.2886
679.5,0.2844
679,0.2813
678.5,0.2792
678,0.2779
677.5,0.2771
677,0.2771
676.5,0.2767
676,0.2777
675.5,0.2759
675,0.2655
674.5,0.2671
674,0.2667
673.5,0.2669
673,0.2663
672.5,0.2657
672,0.2648
671.5,0.2637
671,0.2622
670.5,0.2603
670,0.2578
669.5,0.2544
669,0.2501
668.5,0.245
668,0.24
667.5,0.236
667,0.2331
666.5,0.2301
666,0.2263
665.5,0.2215
665,0.216
664.5,0.2101
664,0.204
663.5,0.1977
663,0.1914
662.5,0.185
662,0.1785
661.5,0.1722
661,0.1657
660.5,0.1598
660,0.1529
659.5,0.1484
659,0.1513
658.5,0.1447
658,0.1395
657.5,0.1339
657,0.1288
656.5,0.1237
656,0.1189
655.5,0.1143
655,0.1099
654.5,0.1059
654,0.1022
653.5,0.0987
653,0.0954
652.5,0.0924
652,0.0896
651.5,0.0872
651,0.0852
650.5,0.0838
650,0.0828
649.5,0.0819
649,0.081
648.5,0.0799
648,0.0788
647.5,0.0781
647,0.0779
646.5,0.0783
646,0.0789
645.5,0.0797
645,0.0808
644.5,0.0821
644,0.0837
643.5,0.0856
643,0.0877
642.5,0.0901
642,0.0926
641.5,0.0955
641,0.0987
640.5,0.1021
640,0.1057
639.5,0.1096
639,0.1137
638.5,0.1181
638,0.1227
637.5,0.1275
637,0.1325
636.5,0.1375
636,0.1425
635.5,0.1474
635,0.1522
634.5,0.157
634,0.1617
633.5,0.1661
633,0.1704
632.5,0.1743
632,0.178
631.5,0.1815
631,0.1849
630.5,0.1881
630,0.1912
629.5,0.1942
629,0.197
628.5,0.1996
628,0.2019
627.5,0.204
627,0.2057
626.5,0.2069
626,0.2079
625.5,0.2089
625,0.21
624.5,0.2113
624,0.2129
623.5,0.2151
623,0.218
622.5,0.2213
622,0.2249
621.5,0.2279
621,0.2296
620.5,0.2294
620,0.2271
619.5,0.2229
619,0.2176
618.5,0.2121
618,0.2067
617.5,0.2018
617,0.1974
616.5,0.1935
616,0.1899
615.5,0.1866
615,0.1834
614.5,0.1803
614,0.1771
613.5,0.1739
613,0.1709
612.5,0.1678
612,0.1648
611.5,0.1618
611,0.1591
610.5,0.1565
610,0.154
609.5,0.1517
609,0.1495
608.5,0.1475
608,0.1455
607.5,0.1436
607,0.142
606.5,0.1405
606,0.1392
605.5,0.1381
605,0.1371
604.5,0.1364
604,0.1358
603.5,0.1355
603,0.1355
602.5,0.1356
602,0.136
601.5,0.1365
601,0.1372
600.5,0.138
600,0.1389
599.5,0.14
599,0.1413
598.5,0.1427
598,0.1444
597.5,0.1461
597,0.148
596.5,0.15
596,0.1522
595.5,0.1545
595,0.1569
594.5,0.1595
594,0.1622
593.5,0.165
593,0.1678
592.5,0.1706
592,0.1736
591.5,0.1767
591,0.1799
590.5,0.1831
590,0.1864
589.5,0.1896
589,0.1929
588.5,0.1963
588,0.1998
587.5,0.2035
587,0.2074
586.5,0.2114
586,0.2155
585.5,0.2197
585,0.224
584.5,0.2286
584,0.2335
583.5,0.2387
583,0.2442
582.5,0.2498
582,0.2557
581.5,0.2618
581,0.2684
580.5,0.2755
580,0.2829
579.5,0.2905
579,0.2983
578.5,0.3064
578,0.3149
577.5,0.3236
577,0.3326
576.5,0.3415
576,0.3504
575.5,0.3594
575,0.3685
574.5,0.3779
574,0.3874
573.5,0.3969
573,0.4065
572.5,0.4159
572,0.4252
571.5,0.4342
571,0.443
570.5,0.4515
570,0.4597
569.5,0.4679
569,0.476
568.5,0.4841
568,0.4921
567.5,0.4999
567,0.5074
566.5,0.5147
566,0.5222
565.5,0.5299
565,0.5377
564.5,0.5453
564,0.5528
563.5,0.5603
563,0.5679
562.5,0.5756
562,0.5832
561.5,0.5908
561,0.5981
560.5,0.6055
560,0.613
559.5,0.6207
559,0.6286
558.5,0.6365
558,0.6442
557.5,0.652
557,0.6599
556.5,0.6679
556,0.676
555.5,0.6841
555,0.6922
554.5,0.7003
554,0.7086
553.5,0.7172
553,0.7263
552.5,0.7359
552,0.7461
551.5,0.757
551,0.7688
550.5,0.7811
550,0.794
549.5,0.8074
549,0.8215
548.5,0.8365
548,0.8526
547.5,0.8696
547,0.8872
546.5,0.9051
546,0.9233
545.5,0.942
545,0.9611
544.5,0.9804
544,0.9996
543.5,1.0183
543,1.0358
542.5,1.0515
542,1.0649
541.5,1.0759
541,1.0847
540.5,1.0906
540,1.093
539.5,1.0912
539,1.0844
538.5,1.0722
538,1.055
537.5,1.0333
537,1.0075
536.5,0.978
536,0.9454
535.5,0.9104
535,0.8737
534.5,0.8358
534,0.7974
533.5,0.7594
533,0.7224
532.5,0.6864
532,0.6518
531.5,0.6187
531,0.5871
530.5,0.5567
530,0.5279
529.5,0.5006
529,0.4749
528.5,0.4507
528,0.4278
527.5,0.4062
527,0.3856
526.5,0.3658
526,0.347
525.5,0.3294
525,0.3133
524.5,0.2986
524,0.2851
523.5,0.2726
523,0.261
522.5,0.2505
522,0.241
521.5,0.2324
521,0.2246
520.5,0.2172
520,0.2101
519.5,0.2035
519,0.1977
518.5,0.1926
518,0.1878
517.5,0.1833
517,0.1789
516.5,0.1749
516,0.1714
515.5,0.1685
515,0.1657
514.5,0.1629
514,0.1601
513.5,0.1573
513,0.1549
512.5,0.1527
512,0.1506
511.5,0.1484
511,0.1463
510.5,0.1442
510,0.1423
509.5,0.1404
509,0.1387
508.5,0.1372
508,0.136
507.5,0.135
507,0.1342
506.5,0.1335
506,0.1328
505.5,0.1322
505,0.1317
504.5,0.1315
504,0.1315
503.5,0.1317
503,0.1318
502.5,0.1317
502,0.1315
501.5,0.1314
501,0.1315
500.5,0.1316
500,0.1316